# www.neaspec.com
# Scan:	 	AFM
# Project:	 	20251007_PS
# Description:	 	
# Date:	 	10/07/2025 13:24:33
# Scanner Center Position (X, Y):	[µm]	49.99	50.01	 
# Rotation:	[°]	0	 	 
# Scan Area (X, Y, Z):	[µm]	5.000	5.000	0.000
# Pixel Area (X, Y, Z):	[px]	100	100	1
# Averaging:	 	1	 	 
# Integration time:	[ms]	5	 	 
# Laser Source:	 	4.5-15 µm nano-FTIR laser
# Detector:	 	R
# Target Wavelength:	[µm]	7.502	 	 
# Demodulation Mode:	 	Fourier
# Tip Frequency:	[Hz]	241,340.500	 	 
# Tip Amplitude:	[mV]	45.700	 	 
# Tapping Amplitude:	[nm]	76.314	 	 
# Modulation Frequency:	[Hz]	0.000	 	 
# Modulation Amplitude:	[mV]	0.000	 	 
# Modulation Offset:	[mV]	0.000	 	 
# Setpoint:	[%]	79.75	 	 
# Regulator (P, I, D):	 	4.206850	8.625812	1.000000
# Tip Potential:	[mV]	0.000	 	 
# M1A Scaling:	[nm/V]	0.426	 	 
# M1A Cantilever Factor:	 	1,000	 	 
# Q-Factor:	 	487.4	 	 
# Version:	 	2.1.11536.0
94.23815       	93.648186      	92.57389       	92.00909       	92.85204       	94.343         	94.469406      	93.950714      	92.86394       	87.9759        	68.443085      	57.333824      	56.415672      	59.824547      	62.805237      	65.42654       	65.45676       	68.39509       	72.43582       	73.18373       	73.67583       	75.63059       	77.35618       	78.38454       	80.23492       	83.16069       	81.52205       	80.39445       	85.137764      	86.13623       	83.4487        	83.65779       	86.82238       	88.36014       	86.102936      	85.946884      	89.99667       	88.568436      	85.61656       	87.755165      	90.00823       	86.07621       	87.04025       	95.386284      	97.126465      	89.83324       	90.97892       	92.28397       	90.2425        	85.91923       	87.02662       	88.64129       	87.077484      	83.645355      	88.24132       	87.190796      	90.11454       	105.424576     	123.40234      	118.36152      	114.320786     	116.28942      	116.12337      	111.97985      	111.26953      	112.30819      	110.69112      	106.50085      	107.248764     	109.920815     	107.97702      	104.31395      	106.261925     	107.81501      	101.878525     	99.84834       	104.146164     	103.006645     	99.80971       	100.07633      	103.0528       	102.19649      	99.65316       	102.60139      	100.895004     	99.74984       	101.14765      	101.92372      	100.25722      	98.56938       	100.698654     	102.568726     	101.251236     	97.63331       	98.69191       	103.508095     	99.92114       	96.84248       	98.35416       	100.45356      	
105.16036      	104.52393      	103.56744      	103.45512      	103.26348      	102.9808       	102.51662      	97.19667       	101.6778       	104.043526     	72.53366       	61.93726       	66.66949       	69.79969       	67.44442       	67.19969       	73.72605       	76.53658       	72.72458       	74.94402       	81.71994       	80.51209       	76.274796      	82.34276       	87.66211       	83.57338       	83.3436        	89.904015      	88.31587       	85.54212       	88.01502       	89.84914       	88.89025       	86.0395        	87.313965      	92.01758       	89.21236       	84.590614      	90.50513       	93.78266       	84.023895      	86.38913       	92.97172       	90.649216      	93.35583       	92.323654      	91.86446       	94.62717       	87.12955       	84.79655       	93.66171       	87.202934      	84.62807       	91.32018       	90.724884      	89.15142       	93.608315      	103.48454      	118.63396      	120.90529      	120.03247      	116.86675      	114.12786      	112.63429      	113.04804      	113.09177      	110.13471      	109.59215      	113.181564     	110.227875     	105.9478       	109.010445     	109.98661      	103.27136      	103.11431      	106.1419       	104.41341      	102.86592      	102.4705       	104.22226      	102.71477      	100.58255      	100.86622      	102.779106     	100.99601      	99.28951       	102.25389      	100.701706     	97.27748       	100.94894      	102.38923      	99.8033        	98.94515       	100.8166       	100.821526     	98.39413       	97.31165       	100.729485     	100.61772      	96.783905      	
104.96901      	104.6368       	103.67404      	103.35239      	103.96034      	102.8448       	100.33416      	101.1641       	102.92171      	99.33359       	75.864235      	63.71039       	64.368286      	67.75308       	67.93269       	67.93603       	71.81958       	74.01359       	72.40652       	74.28517       	79.44751       	79.87602       	79.35158       	83.753105      	84.6076        	84.14983       	84.62711       	85.69585       	87.0795        	85.95098       	85.35698       	87.44493       	87.5013        	85.24463       	87.23092       	90.086945      	87.04806       	86.18665       	90.37904       	89.3455        	87.17876       	88.76448       	88.80029       	87.983345      	94.570076      	91.383026      	93.14489       	92.64741       	94.01542       	90.54532       	88.94261       	89.73612       	93.38425       	94.47667       	91.16157       	96.74914       	102.83716      	106.158806     	119.45182      	122.026405     	118.01514      	115.73957      	115.45008      	113.517876     	111.854866     	109.775444     	109.67404      	110.68514      	108.43429      	105.80413      	107.8754       	108.276        	103.25035      	103.16088      	104.830734     	102.583206     	100.446945     	101.29738      	102.35796      	101.03844      	98.994576      	99.60445       	100.01993      	101.18844      	100.10445      	100.64372      	99.806015      	98.22736       	99.13618       	98.98304       	98.87682       	98.08182       	99.55445       	99.575226      	99.53902       	99.771835      	98.20675       	98.79735       	98.70534       	96.91243       	
105.37504      	103.60612      	102.910736     	102.39967      	102.71363      	103.5568       	101.71512      	100.049385     	102.93281      	103.34372      	83.50643       	64.106964      	66.00534       	68.26031       	65.1137        	67.31177       	74.856064      	72.59307       	71.908295      	76.183014      	79.298225      	77.9946        	80.324265      	83.11451       	83.5332        	83.463486      	84.5432        	85.50528       	86.32758       	85.18686       	87.017426      	88.082016      	85.90791       	86.96888       	89.22427       	88.59016       	85.12685       	87.57567       	90.96436       	87.9006        	84.47689       	88.28315       	90.89058       	86.14937       	91.73729       	95.86659       	98.26039       	95.84886       	93.131195      	100.43639      	98.78753       	94.307686      	102.00289      	108.64627      	100.07638      	104.68993      	111.48861      	115.392006     	119.28448      	115.024445     	114.982956     	113.5859       	109.695114     	109.56255      	109.357895     	108.336716     	107.1174       	108.403496     	106.511246     	103.37426      	103.79223      	106.31604      	103.964355     	102.00552      	103.299065     	102.22519      	100.512245     	99.09083       	100.62142      	102.02783      	99.39881       	98.900444      	99.20171       	99.40257       	99.97689       	100.90294      	98.14659       	98.28624       	101.31694      	99.945786      	98.330765      	100.55046      	98.53261       	98.125         	98.540146      	97.78134       	96.32446       	98.5685        	98.78156       	95.32437       	
102.14119      	104.59685      	106.40144      	105.950325     	102.43849      	101.88072      	103.72285      	101.652954     	99.29105       	102.537605     	94.77498       	69.63475       	62.979324      	63.434128      	68.151115      	68.564575      	67.278366      	71.214294      	74.597946      	73.700264      	76.170845      	79.47305       	80.26595       	80.67878       	83.00679       	83.02802       	84.15002       	86.134735      	85.83353       	84.34839       	84.17046       	85.30334       	86.02485       	85.30831       	84.63374       	86.85042       	86.22902       	84.51469       	86.17802       	87.95649       	84.66983       	84.03043       	86.82453       	92.4445        	92.9877        	99.10584       	103.55558      	108.20199      	106.61254      	106.471146     	105.429474     	106.59697      	109.319664     	108.75408      	105.325226     	109.70821      	116.7957       	113.997795     	110.000435     	107.753426     	109.74098      	109.20389      	104.538704     	105.54764      	107.04517      	104.51159      	101.60983      	103.444374     	103.91241      	100.815605     	100.14615      	104.379074     	102.40087      	99.047455      	99.44351       	101.04145      	98.80444       	95.43057       	99.71121       	100.54977      	96.19084       	93.997345      	97.98492       	98.69113       	96.180626      	96.369156      	99.40861       	97.87756       	93.686775      	96.48229       	100.04636      	96.51961       	95.714226      	98.82674       	99.04752       	95.54345       	96.27214       	99.796715      	98.31006       	94.57189       	
106.43194      	102.83514      	101.10513      	101.30373      	102.67121      	102.40681      	100.3123       	99.468864      	99.33371       	103.20251      	100.72775      	70.79644       	64.619644      	66.649506      	63.795105      	65.83958       	71.352005      	71.29725       	71.368904      	72.35387       	75.9318        	79.85316       	77.49246       	77.387405      	83.76814       	83.39249       	80.847         	85.89327       	86.28072       	82.877495      	85.64102       	85.32094       	84.35413       	85.36451       	83.58058       	86.01136       	86.41955       	83.57605       	86.10185       	93.99504       	96.26461       	92.82978       	98.44601       	103.44807      	107.484634     	109.12334      	107.47377      	112.51246      	116.01156      	116.247505     	114.54898      	117.06368      	115.03255      	116.062546     	114.39659      	111.34593      	108.76619      	110.363716     	108.57712      	106.43387      	106.00699      	105.34266      	104.34302      	104.156845     	102.466866     	103.81813      	103.24427      	100.122345     	101.07398      	103.634315     	101.55046      	99.133415      	100.11162      	101.198654     	99.25556       	97.9482        	97.665115      	98.19811       	96.38326       	96.9332        	98.4182        	98.090645      	96.052475      	97.81363       	97.98686       	96.095375      	95.48368       	97.53016       	97.35927       	96.11747       	96.736786      	98.15148       	97.37924       	96.44296       	97.88093       	98.842545      	95.10827       	95.08113       	98.17176       	97.1399        	
106.50316      	104.65538      	101.75965      	100.03308      	101.19071      	102.75252      	101.02778      	99.02817       	99.470955      	99.74461       	101.62857      	80.47023       	62.83093       	63.633186      	64.946846      	62.95146       	68.70563       	70.94441       	70.54997       	73.65012       	76.66279       	77.26142       	78.86783       	79.88322       	81.949356      	82.61075       	81.78268       	83.285324      	86.35193       	85.28842       	82.80617       	85.17309       	85.86042       	85.66148       	87.760216      	91.21773       	98.30297       	98.302155      	103.15998      	105.213585     	107.98963      	108.86116      	107.7657       	109.127594     	108.687294     	114.24922      	116.639        	115.32724      	117.30596      	113.4406       	112.15138      	110.831894     	108.549545     	108.00169      	109.035286     	106.32194      	103.635506     	104.772964     	104.81224      	101.8202       	101.68578      	102.80055      	102.82512      	100.16082      	98.80333       	101.25642      	100.275665     	96.178474      	98.22993       	100.36595      	97.97043       	97.130615      	98.17563       	97.053314      	95.4619        	96.95593       	98.16319       	95.10429       	94.683624      	95.427505      	96.96955       	96.07564       	92.65524       	94.28885       	97.04758       	95.48614       	94.536835      	97.04998       	97.27819       	95.218155      	96.18889       	97.08609       	96.25228       	96.501335      	97.51209       	95.54644       	94.63956       	95.26893       	97.66824       	96.867035      	
101.88414      	102.07769      	102.85442      	103.28325      	102.22649      	99.10013       	99.05144       	100.71945      	98.62064       	96.342926      	100.49498      	91.17001       	63.72494       	60.218132      	62.122154      	63.20333       	65.49449       	66.27331       	68.680984      	74.75279       	72.69972       	72.88748       	76.623955      	79.540405      	78.608246      	79.69182       	80.92262       	81.27404       	81.774506      	82.88818       	84.89852       	88.90721       	94.048935      	94.16126       	99.72718       	101.53072      	102.62564      	98.30827       	103.20356      	105.60048      	110.671745     	112.13542      	117.852875     	114.862114     	112.20686      	115.00108      	112.26575      	108.52569      	110.97315      	111.45147      	106.53252      	106.13665      	108.46898      	105.90378      	101.94096      	102.2412       	102.24243      	102.558975     	100.77333      	98.58386       	101.60177      	100.84067      	95.813225      	98.4668        	99.99433       	96.21362       	96.17773       	97.98461       	95.845406      	96.91933       	97.983604      	96.580284      	96.02031       	96.52833       	95.32415       	94.574814      	93.18753       	92.042435      	94.68156       	95.77062       	92.06401       	91.85949       	96.1392        	95.25786       	92.98854       	96.142914      	96.09783       	92.996506      	95.50866       	95.346756      	95.30143       	97.37657       	95.77629       	94.85379       	95.55073       	95.017815      	95.17403       	94.90267       	92.56571       	94.06744       	
100.96488      	101.29399      	101.481895     	101.63318      	100.104485     	99.4122        	99.566376      	99.89566       	99.8539        	99.19221       	98.87          	92.01405       	68.57599       	57.271275      	60.173424      	65.69833       	63.97044       	63.130775      	68.610016      	71.07179       	69.631584      	71.56824       	74.459755      	74.4757        	76.9909        	78.82426       	83.88239       	88.08214       	93.65883       	91.48847       	91.89499       	93.794014      	100.846146     	105.281136     	103.65118      	105.27425      	112.04904      	107.67586      	113.131256     	113.234055     	111.27128      	109.11486      	108.273636     	107.71059      	107.215706     	106.936615     	106.309456     	107.727615     	106.60009      	103.71336      	103.84237      	104.57392      	104.04506      	101.89929      	99.53116       	99.94398       	102.0671       	99.74288       	97.08117       	99.59278       	98.98945       	96.37196       	96.309525      	98.43          	95.59544       	93.422905      	95.64218       	96.85236       	94.683174      	93.87245       	95.581245      	95.57759       	94.61099       	93.92471       	95.41646       	94.929596      	90.8257        	92.58292       	96.28392       	92.82088       	91.21919       	94.62715       	94.82162       	91.89168       	91.5893        	94.40523       	94.226074      	91.14764       	91.59773       	94.67965       	94.76102       	93.51915       	93.47034       	95.009575      	94.20353       	93.74925       	95.128555      	95.97354       	92.10533       	92.729164      	
99.67136       	97.788445      	98.603836      	101.52929      	103.28761      	99.86457       	95.735         	99.60209       	101.10749      	96.497604      	96.094765      	95.247604      	69.71001       	60.469723      	62.51926       	63.849644      	64.762825      	66.29365       	68.28316       	70.282776      	71.7294        	75.36599       	81.75533       	92.680336      	89.5343        	84.6561        	86.95834       	87.90838       	93.449104      	97.31062       	104.17148      	102.98601      	105.99928      	114.04432      	111.362305     	111.287636     	118.50288      	120.3003       	114.41751      	109.47046      	109.846146     	108.39014      	106.041534     	104.79416      	104.11897      	102.70149      	100.780556     	100.252235     	98.737144      	98.86948       	98.01147       	98.423584      	99.67677       	96.22205       	94.92655       	98.04936       	97.02726       	93.38722       	95.80732       	99.17594       	95.02966       	94.29909       	98.48641       	97.29166       	94.0143        	95.06835       	96.047485      	95.09692       	93.26997       	93.47108       	95.90368       	94.86977       	92.10723       	94.26986       	96.49784       	92.86044       	92.77267       	94.07757       	91.85286       	92.51808       	94.41504       	93.42763       	93.043076      	92.1607        	93.5723        	94.31282       	93.09791       	91.96681       	95.55195       	94.20124       	89.73983       	91.08639       	96.000786      	93.08313       	92.51481       	94.16098       	92.940674      	92.701454      	92.1992        	92.46175       	
94.559616      	96.683685      	96.80649       	95.76554       	94.224236      	93.759415      	94.0109        	93.57313       	93.843735      	92.443565      	94.07602       	95.53809       	94.69322       	90.61272       	86.06937       	85.46069       	85.50756       	89.16206       	94.58852       	97.01233       	101.56694      	92.21423       	84.76645       	82.74825       	83.666214      	84.75012       	86.7685        	87.72057       	91.26787       	91.805305      	99.809135      	103.81672      	106.32857      	102.62336      	99.69445       	98.64151       	98.09612       	95.342094      	95.593254      	99.42426       	101.14389      	98.205315      	97.76756       	95.43157       	94.780846      	94.20615       	93.085175      	93.49965       	94.28161       	92.79393       	91.494736      	92.554436      	92.75188       	92.85545       	91.33024       	91.43867       	92.63869       	93.00724       	91.57342       	92.51482       	93.90755       	92.977554      	90.62935       	92.40613       	93.59701       	92.28917       	91.4325        	91.4882        	92.985725      	93.54973       	91.001816      	91.09744       	92.60409       	91.73845       	92.53008       	93.45763       	90.72255       	91.64692       	93.24814       	92.44095       	91.46227       	93.38626       	92.243576      	92.21272       	93.79564       	92.481186      	91.52926       	91.61673       	91.46699       	91.28409       	90.88078       	89.852554      	92.08556       	93.25306       	90.53329       	91.02068       	91.930084      	91.61485       	91.908134      	90.317245      	
92.78172       	92.38935       	92.83304       	93.72912       	93.879524      	94.22759       	93.26569       	91.364914      	93.65841       	95.31841       	92.80311       	91.15596       	93.22766       	93.83614       	92.814316      	94.26956       	94.62499       	93.176834      	93.7981        	95.088066      	94.31025       	93.92907       	90.9181        	87.312546      	88.189926      	85.90025       	88.934494      	100.15325      	101.299835     	94.566536      	95.85161       	96.67286       	94.26594       	92.663605      	93.68385       	94.58578       	93.074936      	89.78483       	93.90869       	95.49787       	89.958984      	90.22314       	93.796265      	92.63011       	90.96891       	91.298515      	93.37476       	93.57071       	89.60265       	90.96498       	94.9051        	91.48641       	88.89973       	92.34615       	91.64078       	88.58898       	91.37263       	91.633         	90.06457       	92.298874      	92.62114       	91.56287       	91.78096       	90.14143       	91.67154       	93.28468       	90.77054       	90.54321       	94.13285       	91.95356       	90.10133       	89.6339        	91.90325       	94.253654      	93.450645      	90.6559        	93.15095       	95.44243       	91.44861       	90.05224       	94.80763       	93.35887       	89.185005      	92.53716       	96.135666      	91.5088        	89.66242       	93.658295      	94.55474       	90.26602       	89.86221       	92.89294       	95.13831       	90.5504        	90.086426      	95.073456      	94.59688       	90.318695      	93.69679       	93.97191       	
92.90693       	92.36677       	91.69278       	91.07666       	91.20476       	92.1191        	92.781265      	93.87882       	92.43641       	94.06297       	94.496704      	92.58354       	92.39127       	94.43195       	95.0418        	92.809906      	92.47144       	95.52785       	95.80614       	93.86874       	93.524216      	94.486         	94.24818       	94.83354       	94.56861       	93.490166      	91.7859        	91.74161       	93.09684       	94.18338       	91.77931       	93.6351        	95.117065      	93.50122       	93.74428       	93.8127        	92.42905       	92.57161       	93.44263       	93.376205      	92.307045      	92.26885       	91.6396        	93.43046       	92.82243       	91.8144        	92.03492       	93.274345      	91.22606       	90.769196      	92.04383       	90.49421       	92.30803       	93.4148        	91.76161       	91.63278       	90.90458       	90.87455       	91.35929       	92.06113       	91.05505       	91.86474       	92.83072       	93.53986       	93.14717       	93.409355      	92.074295      	92.822876      	93.17367       	92.127396      	92.75462       	94.35575       	92.480995      	90.852264      	94.52953       	93.802444      	92.54785       	92.766846      	92.67204       	92.79493       	94.543755      	92.46399       	93.08582       	94.2266        	92.35954       	93.75539       	94.33985       	91.396675      	91.68348       	93.39902       	90.727936      	90.706535      	92.291336      	90.74684       	92.03136       	92.46322       	90.82462       	90.319214      	92.073364      	90.63431       	
94.856445      	91.62574       	92.39916       	94.01676       	94.80168       	92.873344      	90.01348       	92.40201       	95.259895      	92.73542       	90.200554      	94.19813       	96.93149       	89.65335       	90.16225       	94.55966       	93.033516      	90.12346       	93.21566       	95.30083       	93.16945       	91.529976      	93.890274      	96.16183       	91.9178        	89.91308       	93.51407       	93.85098       	90.749115      	91.23376       	93.92674       	93.50545       	91.71477       	93.61687       	93.99079       	91.168785      	92.270134      	93.81017       	94.77958       	92.10363       	91.374374      	95.63869       	93.47781       	90.9202        	92.52743       	94.63729       	91.723076      	91.152306      	93.10356       	94.20763       	90.988525      	89.075165      	93.21014       	93.177734      	90.956024      	91.90207       	92.573845      	90.53256       	89.91478       	93.516         	93.44504       	90.66983       	89.15116       	92.036095      	92.004974      	90.144394      	89.74493       	92.93985       	90.77955       	88.852715      	91.01032       	93.36539       	91.26917       	90.37037       	91.54949       	92.599236      	90.988106      	90.57362       	93.39183       	93.123665      	90.45707       	90.82104       	91.738785      	89.38262       	90.76034       	92.58542       	92.23015       	90.79423       	92.020294      	91.439156      	90.49671       	89.52591       	92.29388       	93.08952       	90.68084       	91.139885      	92.52513       	91.03432       	90.29201       	89.472404      	
94.76782       	95.6567        	95.87536       	94.62891       	93.08231       	94.358604      	94.82573       	94.21534       	91.02145       	93.87165       	94.31739       	91.164444      	92.23355       	94.99715       	93.77738       	91.75959       	93.10141       	94.32103       	92.53104       	92.002945      	93.13652       	95.156         	92.690765      	91.495285      	92.473785      	93.49151       	91.8002        	91.338776      	91.3614        	90.256676      	92.620155      	92.62012       	92.90535       	92.346725      	93.01087       	94.5361        	93.15245       	90.56136       	90.938         	92.47682       	92.022255      	91.71666       	91.72161       	92.35331       	90.58449       	91.27665       	92.691216      	92.70987       	91.89983       	91.456696      	91.15286       	90.76704       	90.753426      	92.3722        	91.632515      	88.551994      	86.023285      	94.66724       	91.839066      	88.37758       	94.847336      	93.05958       	91.88118       	91.266235      	90.57496       	93.58025       	90.002         	90.71922       	94.56359       	93.16071       	88.68295       	91.31442       	94.477425      	91.47812       	91.21159       	92.31738       	92.524605      	93.16734       	91.32144       	92.65744       	93.337685      	90.03661       	91.820915      	91.64625       	90.42721       	89.44686       	93.26297       	93.82482       	90.66948       	90.72283       	92.54031       	91.0394        	89.25607       	90.24916       	92.073         	91.3431        	89.64404       	91.40739       	92.85633       	90.42008       	
94.28067       	96.67018       	97.27894       	96.73317       	95.70242       	94.65209       	96.01582       	96.6731        	95.635796      	94.06124       	94.098015      	97.56754       	94.45265       	92.388664      	95.11226       	97.01341       	93.97523       	94.466606      	95.52745       	96.82115       	92.38049       	94.0295        	95.89528       	94.48923       	92.78034       	93.517204      	94.81911       	94.66701       	92.01457       	93.46031       	96.30392       	92.41354       	93.08614       	96.405815      	93.45717       	91.772545      	95.601875      	95.777016      	92.73152       	92.45894       	92.802536      	94.73969       	94.323975      	91.44396       	93.634766      	96.15148       	92.27637       	92.39735       	95.43227       	93.867516      	91.86103       	94.84623       	95.17042       	93.56812       	92.44299       	93.32105       	93.37927       	90.50093       	89.28096       	95.37824       	96.49034       	92.20274       	92.64837       	96.04839       	95.11951       	92.43605       	94.49095       	96.476654      	93.109375      	89.74081       	95.263885      	96.42198       	91.644424      	92.4487        	97.12834       	96.17366       	91.8315        	93.79515       	96.58361       	94.18392       	92.47315       	94.85505       	95.31529       	93.80254       	94.222855      	97.24321       	95.41393       	93.325066      	94.49986       	96.5844        	93.37053       	90.98488       	93.9914        	94.148674      	91.248825      	91.58927       	95.94998       	93.6632        	90.78276       	93.21798       	
93.01667       	92.81483       	92.3984        	91.636246      	91.49398       	90.737495      	93.1709        	93.3046        	93.58748       	93.552895      	94.21533       	94.279335      	92.92888       	92.24561       	93.115875      	93.65695       	93.31518       	94.05024       	94.49063       	93.31747       	95.046425      	93.87469       	93.51537       	94.75495       	94.418526      	93.467964      	93.972015      	92.49126       	93.025116      	95.246864      	94.26566       	92.88606       	92.74364       	93.88362       	94.90364       	94.228516      	92.34655       	94.91127       	96.01278       	91.92441       	92.58834       	96.541885      	94.33742       	91.471436      	93.39368       	93.96277       	91.78889       	93.6029        	95.88379       	93.31746       	92.943886      	94.363655      	93.35731       	91.436         	92.64102       	91.54623       	92.659355      	90.483         	90.89659       	94.75041       	94.51038       	91.756065      	92.32378       	95.5289        	92.85157       	91.15422       	93.87749       	93.526855      	92.68907       	92.80212       	93.85102       	94.408134      	93.14503       	89.52869       	93.27591       	97.224846      	91.64133       	91.1512        	93.613075      	92.74085       	90.63781       	91.99853       	93.735344      	91.61004       	90.4684        	92.05746       	96.03864       	92.52599       	89.92351       	95.22586       	94.51883       	90.9334        	91.65467       	96.60002       	94.31235       	90.97313       	92.92619       	95.654175      	94.31639       	91.00233       	
92.86567       	92.68799       	92.49007       	91.70768       	91.21407       	91.47063       	94.5647        	94.25566       	93.071205      	95.63183       	95.40117       	92.98718       	92.52188       	94.53932       	93.95609       	92.01991       	91.38046       	92.97222       	93.22477       	90.55061       	92.72306       	95.34315       	92.61828       	90.813324      	93.7004        	93.011215      	91.83817       	92.75004       	92.41076       	92.80944       	92.3235        	94.6461        	96.763664      	94.223564      	92.90165       	96.14586       	94.088066      	91.62305       	93.547935      	94.89693       	92.56969       	93.225746      	93.98787       	93.98471       	93.28056       	93.57332       	95.185074      	94.666466      	93.21298       	93.846634      	92.68885       	91.638954      	90.01393       	92.81034       	93.24939       	90.82094       	90.70828       	93.666885      	92.575935      	90.31902       	91.69654       	93.574875      	93.829094      	92.430626      	93.480354      	93.06495       	91.078094      	91.365814      	93.25304       	92.667656      	90.74426       	92.19422       	93.84087       	92.56422       	91.305         	90.93636       	90.45213       	93.041         	93.14969       	92.279015      	92.747475      	93.14798       	91.236694      	91.65845       	92.09249       	93.029655      	92.41508       	92.409874      	94.53923       	92.77506       	89.63822       	91.515656      	93.143974      	90.98319       	89.954865      	91.62648       	93.71861       	91.62236       	91.63162       	92.580215      	
96.32894       	93.42171       	92.31383       	93.23853       	94.50362       	95.431274      	93.55618       	93.63936       	95.6895        	94.22499       	93.8114        	94.51865       	94.26636       	93.93575       	92.351204      	91.56304       	93.975784      	93.45451       	90.70271       	93.05696       	95.05277       	92.6871        	92.193306      	93.891106      	93.93722       	92.191696      	93.32834       	93.25525       	93.194374      	93.85779       	92.69036       	93.797844      	94.33676       	93.3177        	93.19601       	93.807915      	91.7587        	92.7979        	93.7007        	91.76376       	91.931854      	93.079056      	94.16345       	92.07935       	91.99647       	91.233795      	93.839005      	94.37956       	91.652954      	91.03621       	94.01987       	92.169876      	90.79155       	91.96899       	91.3038        	91.523544      	91.98148       	92.90857       	92.35052       	89.35014       	90.43891       	93.17746       	94.324715      	91.47906       	91.99108       	99.127686      	93.551216      	91.64242       	94.20723       	94.51769       	92.802574      	92.77648       	94.241104      	93.45567       	93.002846      	93.055405      	93.84952       	95.1058        	93.26818       	92.15791       	94.847015      	93.68518       	92.589806      	95.75716       	94.67349       	90.9605        	92.45342       	94.900764      	93.93888       	92.620026      	94.07474       	93.967285      	94.831856      	94.75823       	91.54414       	92.45756       	92.98446       	93.86443       	94.294586      	93.02315       	
91.55696       	94.80694       	96.443436      	95.38769       	92.46908       	92.339066      	95.46451       	95.01925       	92.017265      	94.340225      	97.02584       	93.355835      	91.8521        	94.48815       	95.77933       	93.32365       	91.03859       	92.97083       	97.54057       	93.59395       	90.950615      	95.98537       	95.61319       	92.376945      	91.74991       	96.02897       	92.44282       	90.32545       	92.11022       	95.82309       	94.83355       	92.84733       	93.90559       	95.6611        	93.145195      	91.1534        	95.51796       	95.10904       	93.779915      	94.19211       	93.27527       	90.25054       	89.49824       	93.99095       	94.2447        	91.83936       	92.37676       	95.79695       	94.610825      	91.76622       	91.94158       	93.73446       	92.04749       	91.14685       	93.32762       	93.262245      	91.91175       	92.100426      	92.532455      	93.84467       	92.64704       	93.24384       	93.829666      	93.367805      	91.41948       	92.62408       	92.90824       	92.07307       	93.39221       	94.6029        	92.935715      	90.42543       	91.287384      	94.51401       	93.409355      	90.331055      	93.042755      	96.02094       	92.82841       	88.718414      	94.14934       	95.69134       	89.40406       	90.31258       	95.10572       	91.76533       	89.76587       	95.301704      	93.97513       	89.95776       	90.59924       	94.86514       	92.55135       	89.85863       	91.30866       	92.21054       	85.14022       	72.98632       	70.55513       	74.308235      	
93.28712       	94.02677       	94.73652       	93.91162       	93.01713       	91.14246       	90.95607       	91.53909       	92.1674        	91.10753       	90.06792       	91.03187       	94.264145      	94.701035      	93.681725      	91.33127       	93.232994      	95.30681       	95.909004      	93.47773       	94.00289       	95.06868       	94.517715      	93.601555      	95.61769       	95.0168        	91.58252       	92.91667       	93.5362        	91.20778       	89.62667       	93.17456       	94.00684       	93.01299       	93.06944       	94.134186      	93.871         	92.50102       	92.123955      	94.18596       	94.044         	91.83515       	93.63176       	94.49915       	92.293655      	93.28563       	93.57023       	91.19113       	89.71078       	92.006386      	92.56298       	92.1862        	89.69099       	92.194626      	93.64719       	91.31519       	90.00635       	94.35743       	94.06688       	89.88425       	91.02084       	93.56353       	93.39415       	91.285904      	92.84799       	93.15296       	93.34977       	93.02558       	92.97691       	93.58473       	94.439         	93.425896      	93.73077       	93.759315      	93.64902       	93.7871        	95.67835       	94.25752       	92.344315      	93.935135      	94.2286        	91.137886      	92.18521       	92.482254      	92.569         	92.48633       	93.131256      	91.13082       	93.82995       	96.39515       	94.67532       	87.63929       	78.53941       	72.29643       	69.87709       	68.69726       	68.760086      	67.95228       	64.48499       	66.4957        	
94.70654       	94.42086       	93.88143       	93.09993       	93.955864      	92.88481       	93.787994      	95.01893       	92.78271       	90.17793       	94.10861       	95.88284       	91.65967       	92.38748       	94.63578       	92.814156      	91.32092       	93.130424      	94.94069       	93.89391       	92.38316       	91.477585      	94.23125       	92.794136      	91.82797       	94.15083       	94.149536      	92.050766      	95.11724       	94.33067       	92.208565      	92.6831        	94.140854      	93.359055      	91.96065       	92.26909       	94.0185        	94.08773       	91.832634      	91.319176      	93.71891       	93.219154      	91.733955      	92.55704       	94.534676      	93.32942       	91.696686      	91.55896       	92.8508        	92.65107       	90.3186        	93.85417       	93.435196      	88.70421       	91.82399       	95.43563       	92.237755      	88.059944      	90.982346      	92.39979       	91.13655       	89.195274      	91.58639       	94.33968       	92.37585       	91.402596      	94.07451       	93.84279       	89.36918       	91.61777       	94.50363       	91.751884      	90.2791        	93.79219       	93.67257       	89.50668       	92.481255      	95.66117       	94.44078       	91.70589       	93.15978       	96.48666       	92.68846       	90.42659       	95.26598       	96.40275       	91.66195       	91.79827       	89.12526       	73.72916       	62.727962      	65.38088       	67.83924       	64.98676       	64.22121       	64.64924       	65.32685       	67.0327        	67.50077       	71.24663       	
93.7679        	95.92227       	95.41877       	92.972336      	89.96622       	90.70869       	93.69014       	90.61922       	88.25648       	91.739265      	90.613335      	90.72717       	91.85446       	90.86279       	91.44927       	95.021645      	92.86285       	93.13478       	96.323135      	95.25675       	93.81103       	95.09419       	92.77937       	95.47985       	96.97043       	92.1198        	91.567345      	96.19179       	93.33668       	88.6613        	93.69088       	95.30962       	91.94103       	92.32776       	94.31291       	93.187515      	92.10326       	93.741936      	92.4974        	93.65205       	92.44294       	90.875275      	93.88944       	93.35079       	90.93366       	94.19286       	92.78569       	91.13759       	94.21402       	94.74903       	92.228035      	93.09996       	94.09413       	92.65787       	93.68128       	93.130196      	94.24475       	94.57159       	91.78564       	92.73457       	92.14145       	91.19389       	91.48168       	94.18834       	92.99847       	90.840614      	92.58606       	93.33472       	92.32439       	91.101326      	92.77536       	91.53554       	93.54994       	90.56795       	91.34712       	92.74476       	93.4514        	90.14802       	92.21746       	93.88855       	91.82496       	92.69559       	93.89083       	92.16898       	92.06281       	94.16588       	93.08757       	89.46872       	72.42909       	66.97807       	66.120926      	63.80384       	63.222652      	64.974815      	68.486176      	68.4924        	68.39428       	70.797195      	73.2655        	74.782486      	
96.55228       	92.1808        	91.61541       	93.77735       	97.3863        	94.966805      	90.22442       	93.065956      	96.36462       	92.982704      	91.52315       	94.52589       	95.800385      	94.53922       	91.5509        	94.341644      	95.41655       	92.29262       	92.285164      	95.80725       	92.33939       	92.21838       	93.8306        	94.62195       	91.75182       	93.09895       	95.49482       	93.57673       	91.89928       	92.433754      	95.03309       	93.97558       	91.40007       	93.24494       	94.61413       	93.29334       	91.498856      	93.47521       	95.47859       	93.83914       	91.386765      	92.56946       	91.97123       	91.07419       	91.32553       	92.62572       	92.93253       	91.38232       	91.471085      	92.084274      	91.96247       	91.42891       	92.289116      	93.03902       	89.688446      	90.97435       	93.77757       	91.64209       	89.8498        	91.18011       	92.08482       	92.56269       	93.044586      	92.062515      	93.910965      	94.32234       	92.995735      	93.307724      	93.84838       	92.87965       	94.081894      	93.07653       	92.663376      	94.25084       	92.350044      	91.64891       	92.09466       	91.82636       	92.0056        	90.796684      	91.24321       	91.32443       	93.781815      	93.27565       	92.37596       	94.564545      	90.20565       	74.00384       	68.08189       	65.98926       	63.01514       	63.077522      	65.62245       	65.82214       	67.53596       	67.909065      	69.74872       	71.128         	71.15648       	73.049065      	
97.54855       	96.74798       	95.7677        	95.363335      	95.22876       	96.0723        	97.82903       	95.04879       	94.28142       	96.10905       	95.420006      	92.60467       	93.137436      	96.49075       	95.791626      	93.536575      	92.06478       	91.76949       	92.82774       	92.5171        	94.10994       	95.06204       	93.41776       	94.10876       	96.211426      	94.8871        	94.6539        	94.09621       	94.01615       	93.0879        	92.74297       	94.357414      	94.848915      	93.12963       	92.445         	93.91508       	95.06081       	93.19197       	93.20158       	93.95855       	93.633835      	94.8015        	92.62248       	94.00567       	94.81685       	94.25826       	94.883736      	95.13543       	93.244194      	93.79808       	96.515305      	95.26966       	93.73649       	93.78094       	92.55795       	92.33627       	91.56111       	93.496704      	92.989975      	91.29799       	92.4923        	93.933136      	92.52684       	92.807495      	92.75518       	93.89946       	94.18161       	92.05339       	93.287704      	95.99257       	91.01325       	91.48279       	97.05413       	99.357         	94.22472       	94.671524      	92.73568       	90.06227       	94.14779       	94.85645       	92.58498       	91.96583       	93.10843       	93.07115       	93.36475       	90.64256       	90.42437       	74.33517       	65.58758       	66.93981       	67.44263       	63.768456      	63.19381       	68.01961       	68.3657        	66.91661       	70.032646      	74.59158       	73.90975       	70.49847       	
96.03814       	93.54863       	92.305374      	93.3938        	97.28551       	98.33769       	93.69015       	93.321846      	95.12938       	96.36243       	95.07634       	92.925995      	95.63876       	96.54987       	92.62591       	93.18417       	98.35926       	94.83423       	90.238335      	97.09002       	96.594894      	91.84363       	93.58601       	95.042465      	94.58728       	92.66222       	93.73554       	95.48413       	96.05373       	90.04674       	92.64745       	95.49718       	92.37963       	89.78902       	93.7484        	94.77209       	90.589485      	91.97868       	92.52129       	94.102486      	98.68559       	97.54085       	95.880875      	94.71969       	91.92069       	94.59384       	93.873055      	91.813675      	95.784966      	96.71016       	92.66881       	93.30948       	96.53943       	95.384224      	91.839035      	91.9285        	93.684135      	94.33452       	93.12038       	91.188896      	93.02315       	93.53741       	95.1317        	92.40092       	92.844574      	91.72132       	93.487114      	95.20476       	91.35269       	91.45039       	93.140755      	95.883736      	93.516106      	92.73467       	91.14047       	94.312546      	94.07149       	92.21578       	93.95981       	93.63533       	92.113754      	91.96982       	92.14837       	92.89945       	93.60038       	94.78258       	89.86469       	74.27051       	70.76378       	70.791245      	68.59534       	66.9875        	67.68066       	69.05586       	67.79229       	69.820564      	73.86269       	72.889435      	70.20998       	74.871635      	
95.297005      	96.30217       	96.41086       	95.60389       	94.3359        	93.09174       	95.56979       	95.415115      	92.5319        	92.43259       	93.91594       	92.52931       	92.05412       	92.288574      	93.139435      	92.431076      	91.28917       	93.331024      	96.19813       	93.44003       	91.72254       	95.13962       	94.01634       	91.72005       	91.687744      	92.50257       	93.22759       	91.255356      	89.58318       	91.77573       	92.03969       	90.56161       	96.01348       	95.97332       	93.79374       	95.784836      	94.69742       	91.905304      	94.520065      	94.41509       	93.30907       	94.53797       	93.037224      	93.21431       	95.4016        	92.65478       	90.63998       	94.224396      	92.962814      	93.0356        	95.68581       	92.31686       	91.30321       	93.74235       	92.524956      	90.71699       	91.89452       	91.89145       	91.84531       	92.0191        	91.91907       	90.66793       	93.63867       	93.611664      	93.01029       	93.28202       	93.37243       	92.94507       	93.925705      	91.05164       	90.46352       	93.95544       	92.179146      	90.06944       	92.65803       	92.651695      	88.72011       	90.938484      	91.64043       	90.24935       	90.93381       	89.84246       	90.15767       	93.011856      	92.50473       	91.896286      	92.86513       	77.71368       	69.77666       	68.15054       	67.40096       	63.59951       	65.108475      	68.19555       	66.930145      	69.409744      	71.85613       	72.09616       	73.70036       	74.42337       	
92.216675      	96.280624      	97.53793       	95.4742        	93.958954      	93.31612       	97.03578       	96.80636       	93.0798        	93.640976      	96.63862       	96.34754       	94.799164      	94.63118       	95.61824       	95.11148       	92.68075       	94.49327       	94.35254       	93.14997       	92.34804       	95.33914       	93.4288        	91.73397       	94.07067       	96.75434       	93.71009       	92.49618       	92.41265       	94.136154      	93.15951       	88.50745       	91.5797        	95.55399       	91.30482       	90.6892        	95.769485      	95.42748       	90.121704      	91.45052       	95.798874      	91.69512       	91.358795      	93.61625       	94.4969        	92.927246      	92.59619       	94.310425      	95.09539       	93.76847       	91.91768       	93.749275      	94.66225       	92.306816      	94.10037       	95.4792        	90.64887       	90.33166       	93.7059        	94.710846      	90.32634       	92.32105       	95.692         	96.71131       	92.53838       	91.8212        	96.56821       	93.35962       	90.36451       	92.51615       	92.810844      	89.914795      	90.85164       	91.607315      	91.519806      	91.35644       	93.571335      	96.05566       	91.83029       	92.27034       	94.76195       	95.30216       	90.682144      	89.6919        	94.73356       	95.87428       	94.997116      	85.27028       	75.784805      	69.0431        	66.65025       	68.57357       	67.28022       	66.46014       	68.93471       	70.96493       	70.52928       	70.78819       	74.01733       	75.69494       	
94.5568        	95.46563       	96.658356      	97.69488       	95.97876       	92.34366       	93.965836      	95.927605      	93.68365       	93.24444       	98.11069       	96.817955      	95.168495      	95.86088       	95.61052       	95.19543       	93.358765      	94.316086      	96.12823       	94.80627       	92.31229       	95.25529       	97.64841       	93.71862       	93.8108        	98.23527       	97.10898       	93.61251       	94.75713       	97.479294      	94.955765      	94.523056      	93.71357       	94.71154       	94.23051       	91.10076       	91.894585      	93.73078       	92.11054       	90.00386       	93.18897       	93.63624       	91.96441       	93.045166      	96.45672       	94.44747       	93.173904      	96.11913       	96.3925        	94.99354       	93.347946      	94.13392       	96.365234      	95.46483       	94.2802        	95.47624       	93.42545       	91.476654      	87.87009       	75.02843       	69.94835       	74.4593        	79.70503       	81.66161       	96.11101       	105.35452      	103.36663      	99.10918       	98.34777       	98.690254      	99.121994      	96.35367       	98.14616       	99.5327        	95.90918       	94.63942       	96.554924      	95.87992       	94.93267       	94.68814       	96.00096       	95.90762       	92.21541       	94.13386       	97.61469       	95.64144       	93.918655      	92.217255      	79.36405       	69.821686      	67.99028       	69.73737       	67.61022       	66.99251       	67.442314      	72.10518       	74.64826       	72.00047       	73.43771       	80.2491        	
95.87938       	93.19514       	92.62399       	93.68266       	95.26922       	96.24825       	94.42226       	94.66759       	95.19848       	96.14819       	93.77351       	93.43005       	95.23141       	94.24325       	93.07879       	95.277885      	96.20756       	92.65771       	92.49102       	96.710365      	93.91375       	92.69571       	94.52113       	95.62996       	95.25816       	91.99606       	92.48729       	95.752655      	95.760185      	90.6266        	92.57468       	95.868126      	90.70483       	88.7044        	95.92308       	95.18184       	90.918495      	91.22929       	92.52264       	93.5839        	93.0016        	92.94683       	94.12447       	93.88109       	90.99793       	92.65739       	96.23558       	92.691986      	90.42967       	96.14136       	94.03995       	89.56051       	93.22014       	96.424515      	90.79609       	76.974205      	70.36817       	68.92749       	67.84435       	65.28254       	62.04083       	64.2939        	64.39777       	68.22966       	87.837685      	103.83774      	100.67345      	102.22051      	103.74489      	98.33919       	96.25141       	100.221466     	102.37838      	98.98084       	96.679436      	101.30446      	102.407135     	96.428116      	96.01665       	101.24942      	99.587166      	93.45736       	97.61243       	99.547745      	94.03278       	95.027145      	98.990074      	95.218765      	77.91944       	73.72757       	72.8824        	70.338         	65.3545        	69.8735        	73.336136      	69.404495      	69.34544       	76.115974      	76.04672       	72.4019        	
93.2519        	94.21425       	95.368805      	95.69727       	95.5699        	94.548996      	94.461426      	96.015816      	96.2966        	94.61736       	93.52194       	97.032845      	94.702896      	92.51876       	95.06499       	93.910286      	95.105705      	93.924126      	93.29082       	90.745         	92.68098       	92.5142        	92.99769       	92.67952       	92.04951       	92.999115      	92.390495      	92.03232       	91.908745      	92.79631       	91.418816      	89.88942       	91.03045       	93.05334       	93.86305       	90.82619       	90.16834       	93.14989       	93.09144       	90.87194       	92.214615      	94.74228       	93.584785      	91.313126      	92.608284      	93.56483       	92.35172       	92.528496      	94.056854      	90.70227       	85.963936      	78.58885       	73.36795       	71.559364      	69.973915      	71.51773       	71.79918       	66.90642       	66.21489       	69.9828        	70.96549       	67.90209       	71.87782       	78.871666      	85.132355      	104.57482      	109.02139      	113.326035     	107.80339      	108.072266     	107.56355      	104.921585     	102.65888      	103.69885      	104.69068      	101.706184     	100.561386     	104.34929      	104.082504     	98.09291       	99.68712       	103.62778      	100.88341      	99.04618       	100.69674      	100.21753      	98.98808       	98.28899       	89.34207       	74.553764      	68.31449       	68.66532       	70.491806      	69.03339       	66.846344      	72.49515       	75.92674       	74.14786       	74.398384      	79.495346      	
98.7688        	96.73851       	94.18051       	93.41987       	96.07236       	98.12907       	97.49493       	96.69568       	97.92281       	98.12263       	94.17746       	96.6205        	98.76573       	95.25539       	92.57081       	95.08514       	99.77388       	96.110115      	93.866165      	97.11402       	97.20492       	92.77583       	94.476036      	97.07146       	94.85533       	93.97426       	94.87951       	94.98842       	94.77264       	93.26346       	93.54963       	94.255974      	89.97672       	91.19272       	95.44842       	93.113846      	90.43725       	94.405235      	97.13353       	92.651825      	91.95877       	94.1774        	94.4698        	93.866104      	90.2838        	86.91148       	80.05286       	70.76222       	67.31749       	70.471725      	66.517944      	61.78401       	65.853714      	67.91521       	65.214226      	67.76655       	71.00873       	70.70507       	69.99864       	72.675354      	75.84559       	74.22845       	74.053925      	82.008224      	92.62464       	99.55743       	113.10908      	114.70783      	112.979706     	108.198494     	108.774826     	110.747894     	106.26617      	104.00146      	107.12821      	107.517914     	102.35281      	101.30329      	104.95079      	104.445694     	100.34693      	100.62331      	107.12965      	104.29607      	97.41293       	102.60853      	106.422775     	100.05098      	87.20234       	79.405396      	74.18523       	68.62802       	69.58682       	72.93083       	69.60496       	67.82378       	75.972885      	79.14217       	77.16535       	76.308136      	
96.30978       	95.6549        	95.76618       	95.78019       	100.030136     	99.39059       	95.528114      	99.443794      	98.34132       	96.9251        	97.32022       	97.38677       	96.6803        	95.63077       	95.99895       	96.65553       	96.34169       	95.97081       	94.39934       	95.4925        	94.502754      	93.37692       	96.376724      	96.51317       	92.96276       	92.8759        	93.926254      	94.93513       	95.09842       	97.10074       	94.92319       	94.133415      	93.83483       	94.69287       	94.91398       	93.751785      	93.0528        	92.81635       	91.83744       	91.33226       	92.05242       	87.11979       	80.98849       	72.97246       	68.80876       	68.20082       	69.143745      	66.28447       	64.59483       	67.70352       	70.03198       	70.84174       	70.72097       	72.85664       	74.93496       	76.1785        	75.99274       	75.29041       	77.085655      	79.56156       	77.19241       	77.03846       	79.447464      	83.546425      	93.27083       	101.74175      	115.471924     	119.464096     	115.86807      	111.57281      	108.72552      	109.84257      	110.816216     	109.63754      	109.877235     	106.6814       	107.33415      	106.09862      	104.39677      	104.16914      	103.31343      	101.36808      	99.429085      	100.13701      	101.214584     	100.25118      	101.31018      	102.34858      	95.81109       	81.58405       	76.66091       	75.26118       	72.80485       	68.880226      	69.65495       	74.55691       	76.06133       	74.888054      	76.29786       	78.6277        	
98.83861       	94.84581       	93.30969       	95.59394       	99.50879       	105.159454     	100.189415     	96.2187        	98.094795      	99.96983       	94.47034       	94.745285      	98.27332       	98.54548       	93.81981       	93.72238       	96.86852       	95.32303       	94.152664      	95.56629       	95.57741       	94.45616       	93.32153       	96.29122       	96.70011       	92.54223       	94.488         	98.929565      	95.27359       	92.34882       	95.749626      	95.64708       	92.05734       	92.32558       	93.74052       	96.14206       	87.3142        	73.0369        	73.149284      	73.60567       	65.79107       	64.942474      	67.72781       	65.22883       	64.29683       	69.5064        	70.063324      	69.42233       	69.150055      	72.24849       	74.559         	73.304855      	74.07687       	76.62998       	78.93612       	76.38635       	77.33707       	80.261055      	79.09156       	77.47938       	81.01862       	80.56963       	77.7923        	82.64259       	92.31882       	106.15873      	117.06669      	116.19703      	116.71663      	113.73538      	111.10033      	110.64039      	112.26506      	108.769806     	106.01216      	108.21821      	107.8293       	105.57018      	105.41473      	105.54263      	105.32051      	103.41434      	103.71679      	103.94164      	102.94123      	101.8648       	102.687225     	103.931564     	102.675896     	88.95297       	77.9842        	76.291664      	76.55132       	73.1692        	73.01639       	74.514786      	75.31762       	77.38919       	77.166176      	77.68736       	
100.27321      	100.74196      	100.64487      	99.77539       	96.908195      	101.37472      	99.00671       	96.10334       	96.15417       	96.1501        	96.4025        	96.59274       	93.81145       	96.932335      	96.45653       	92.578384      	94.84789       	95.99958       	93.43514       	92.250336      	94.33825       	97.732635      	93.36427       	90.6261        	92.90291       	94.91053       	91.847176      	93.51652       	93.718216      	92.05644       	91.57226       	94.816444      	98.41802       	89.538315      	77.26427       	72.700615      	71.60377       	67.287285      	66.22775       	66.89712       	68.26485       	68.98492       	71.53012       	72.35613       	72.935776      	75.095474      	76.718666      	76.62597       	77.53978       	78.26108       	79.54405       	79.715866      	80.78496       	81.25496       	82.54587       	81.70968       	82.96581       	83.25754       	82.67505       	82.67516       	82.84544       	80.981125      	79.88582       	81.41101       	85.3267        	100.423225     	117.601105     	119.74903      	118.78458      	116.33868      	112.11998      	109.614716     	112.21355      	112.320366     	109.033775     	108.32992      	108.27759      	106.21667      	106.76325      	107.32511      	104.74721      	103.04286      	104.969864     	105.4799       	105.34743      	103.33913      	105.51415      	106.50138      	101.7957       	92.15963       	80.56298       	75.264336      	73.001144      	69.435745      	68.947716      	69.38628       	73.5066        	74.45178       	75.66963       	76.52654       	
96.72082       	96.916145      	96.85882       	99.84997       	99.64851       	98.42273       	96.71819       	97.83407       	98.458336      	95.47843       	95.45959       	97.08515       	96.0431        	93.696884      	96.02333       	96.76696       	96.148674      	93.34099       	94.18568       	96.10641       	95.00992       	93.62788       	94.70224       	93.75944       	94.13548       	96.17839       	94.66203       	92.93417       	93.9861        	90.05612       	74.969284      	67.5216        	69.91208       	70.48877       	66.137665      	66.393906      	69.947876      	67.58977       	67.201195      	72.27858       	73.967545      	71.28551       	72.47301       	77.9673        	79.38732       	76.607704      	77.23509       	80.770134      	82.02927       	79.32821       	80.885956      	85.45333       	83.89462       	83.502914      	85.378044      	85.709015      	85.87171       	85.371254      	84.72566       	86.27924       	84.664635      	83.79107       	84.6095        	84.80439       	86.58206       	100.2524       	116.30128      	122.02498      	118.001724     	117.331184     	116.102135     	113.95019      	112.65636      	111.85239      	111.75329      	110.65443      	108.70628      	108.00411      	107.6497       	106.4903       	107.35617      	107.3549       	106.77695      	106.29394      	106.5843       	104.70196      	103.98454      	106.97091      	103.10047      	94.361404      	79.79011       	75.84153       	75.38171       	72.13819       	69.61058       	72.31031       	75.210205      	73.817635      	77.22547       	80.82568       	
94.98737       	93.67855       	95.95152       	100.53465      	101.408295     	99.569145      	99.146065      	98.525955      	98.05879       	97.520226      	95.292725      	95.83206       	97.957         	96.204346      	94.07923       	96.92387       	93.39599       	93.492134      	94.64977       	94.73473       	92.34448       	92.41702       	93.386215      	94.23353       	94.89352       	93.85953       	95.06015       	93.789276      	80.9485        	66.719345      	63.51168       	64.626274      	62.262093      	62.888695      	67.82819       	66.76275       	67.068054      	70.49662       	72.73542       	72.75255       	72.11445       	74.72583       	77.28504       	75.94919       	75.188995      	78.56332       	78.46786       	78.92486       	80.98442       	81.325         	80.41407       	81.86302       	83.78893       	83.51655       	83.93148       	83.27949       	84.631386      	86.157394      	84.74076       	83.57989       	84.555         	84.66662       	84.15108       	82.86495       	85.74378       	92.53647       	109.70475      	124.207954     	122.45443      	117.84485      	116.44298      	114.99556      	113.02787      	110.90959      	110.99616      	111.35075      	109.292206     	107.47025      	107.84703      	107.53476      	105.918304     	104.05427      	105.844284     	105.232376     	104.182        	103.957535     	103.90886      	101.773766     	102.023506     	101.44792      	84.97792       	77.6402        	76.98803       	76.955124      	72.76525       	71.19257       	75.53595       	76.17549       	76.47367       	78.75213       	
98.18644       	98.0955        	99.181656      	101.708046     	102.03189      	100.729546     	99.37601       	100.21725      	99.14143       	98.988716      	99.3766        	99.41192       	98.73705       	97.71786       	97.51506       	97.35542       	97.17932       	96.0144        	95.34989       	93.595634      	96.509605      	99.08095       	96.02638       	95.041306      	96.14686       	97.38018       	93.58929       	82.57785       	70.95281       	66.3297        	60.111343      	62.602512      	67.15169       	66.21939       	66.80285       	70.82658       	72.63011       	71.18851       	72.03908       	75.577736      	77.206924      	74.865585      	75.84815       	81.006195      	81.11681       	77.26569       	80.14985       	83.97608       	82.047066      	81.49759       	84.01447       	85.19329       	84.04009       	84.82433       	86.09306       	84.85803       	84.972015      	86.01644       	87.21852       	85.1867        	83.17113       	84.55775       	86.27276       	81.602         	82.74645       	90.86903       	106.26358      	117.8042       	122.44319      	119.23012      	113.61246      	112.63424      	112.82939      	111.355034     	111.87753      	109.61621      	107.72574      	108.64843      	107.03963      	106.89985      	108.14985      	105.91857      	103.91436      	106.46545      	105.61085      	103.700485     	104.67355      	105.05031      	102.69073      	103.075836     	88.082794      	77.544304      	77.19719       	75.329254      	71.96601       	73.14448       	74.96666       	73.95509       	78.83322       	77.834915      	
99.12497       	97.51866       	98.19951       	101.16021      	102.08559      	99.55983       	96.70916       	99.10791       	100.83377      	96.87814       	95.374435      	96.868706      	99.04985       	96.55507       	95.124664      	98.34534       	98.802574      	94.95373       	95.90736       	97.94287       	96.17642       	94.691025      	96.256546      	98.33969       	95.03199       	94.199104      	93.70165       	76.83585       	67.095474      	66.961945      	67.86915       	64.83669       	62.894775      	66.56338       	71.485275      	71.727066      	71.49229       	74.84432       	78.48743       	76.73414       	77.1833        	80.73717       	79.23039       	79.61095       	81.315956      	83.340454      	81.99861       	81.310165      	86.04553       	86.351         	83.29166       	83.36571       	86.66589       	87.424446      	84.53622       	85.16414       	86.93149       	87.921394      	86.84856       	86.00866       	88.0572        	86.49426       	85.913956      	85.90685       	84.543625      	87.3857        	104.47972      	118.15378      	124.48528      	118.98612      	119.31642      	117.9297       	114.121445     	112.352036     	113.05555      	112.742424     	109.909676     	108.57816      	109.37866      	107.884796     	106.95801      	107.07145      	105.84708      	104.323685     	105.93859      	105.38794      	103.63477      	103.74478      	103.73352      	104.095085     	90.46107       	79.240814      	75.58153       	74.249344      	74.99118       	74.5171        	72.87369       	73.12929       	76.83848       	79.10524       	
97.00138       	96.64181       	98.01688       	102.326004     	101.88925      	98.94566       	97.315926      	99.379524      	101.49812      	98.79846       	96.71245       	98.73314       	98.580536      	96.83766       	97.143486      	98.6538        	98.30395       	96.50494       	95.81784       	97.348465      	98.18811       	93.180466      	94.65433       	99.282234      	97.29259       	94.82575       	92.04667       	77.2328        	68.97696       	67.25518       	67.92589       	66.586586      	66.56029       	68.74372       	70.915695      	72.62051       	72.28648       	74.9796        	77.30926       	76.572525      	78.46961       	81.48671       	79.60734       	78.382034      	80.4462        	84.76869       	83.310104      	81.7426        	82.14689       	85.83314       	85.932304      	84.26676       	85.86644       	87.538246      	85.78511       	85.25032       	87.687126      	85.24666       	84.11978       	85.01168       	86.63691       	84.97057       	83.01449       	84.61617       	87.6526        	85.62326       	91.7649        	112.97912      	127.23377      	115.42152      	114.338394     	114.29168      	112.62336      	111.86364      	111.2216       	108.941154     	108.99698      	107.10033      	107.802765     	106.31966      	104.15374      	105.61674      	108.284744     	103.92333      	103.40071      	106.436935     	105.183        	102.96626      	102.44286      	103.16855      	101.68648      	87.974106      	79.08861       	76.226494      	75.58729       	74.97028       	73.11175       	76.83042       	77.38805       	76.69003       	
98.910355      	99.2727        	100.78986      	101.63429      	100.688965     	100.43604      	99.3362        	99.215614      	100.03775      	99.84041       	98.8757        	96.81714       	96.847694      	95.67524       	95.786545      	95.93041       	95.096436      	94.238396      	94.708466      	94.86471       	94.15093       	89.71745       	95.30208       	97.906624      	96.29199       	95.42834       	95.63724       	82.63039       	69.89509       	65.967255      	68.37423       	67.24395       	63.03215       	66.18568       	72.80502       	70.70167       	68.748184      	73.83312       	76.07951       	74.02436       	73.867485      	79.84847       	77.34484       	75.424164      	78.84794       	82.52524       	78.8938        	76.34515       	82.942535      	85.951996      	79.2737        	81.18837       	85.96331       	84.988594      	82.63834       	83.75137       	87.03368       	84.27474       	82.24833       	85.33287       	86.86237       	84.74003       	81.80757       	84.781265      	85.38014       	81.756355      	88.35733       	107.17182      	124.50621      	121.43909      	118.89139      	118.73699      	115.17486      	111.47145      	113.57308      	112.792595     	108.56705      	108.91025      	108.72233      	106.38134      	104.3203       	107.72429      	107.10067      	102.301704     	102.85937      	104.70968      	104.99981      	102.060356     	100.99382      	102.95385      	101.251785     	85.03145       	77.486046      	77.61128       	76.44377       	74.350235      	73.68477       	74.7472        	75.777596      	76.32684       	
96.38594       	96.68221       	98.98414       	100.1992       	99.25338       	96.83582       	98.32543       	99.879875      	95.211685      	94.957695      	97.955215      	98.46929       	95.5177        	95.27115       	96.49163       	95.408         	93.825455      	94.857956      	96.87589       	94.518425      	90.45662       	96.86219       	97.595146      	90.46427       	92.608955      	98.460625      	96.44873       	81.101524      	70.77403       	69.498795      	65.710075      	60.38534       	64.79218       	68.942635      	65.35871       	64.89725       	72.28007       	72.0411        	70.510345      	75.52458       	79.04765       	76.49776       	76.18644       	81.17494       	82.46461       	80.5935        	79.7517        	82.88586       	84.03615       	80.1349        	81.27881       	85.251396      	84.12019       	83.80554       	84.22447       	85.774895      	85.439735      	83.09236       	86.09615       	86.05325       	81.73833       	82.46496       	87.36821       	83.49357       	80.75671       	82.027374      	89.67296       	103.69642      	111.272446     	125.46087      	121.502106     	111.54572      	110.32161      	113.83229      	110.888374     	109.34037      	111.43713      	111.856514     	108.27394      	106.84777      	107.19186      	108.04713      	104.20116      	104.87765      	108.30434      	107.191635     	103.37891      	105.92175      	108.63233      	104.40621      	99.74816       	87.21901       	80.5545        	73.18697       	71.550934      	71.61363       	71.57459       	72.41708       	76.813324      	76.406204      	
93.51271       	96.06373       	97.607506      	101.355545     	100.092354     	99.639854      	102.55629      	100.696945     	94.06554       	97.24004       	101.332405     	96.70628       	94.143555      	96.25648       	99.800125      	94.823166      	92.91578       	97.48019       	99.15764       	92.88061       	91.3185        	98.42306       	98.10462       	90.75153       	94.303314      	99.91087       	98.09241       	84.36529       	74.02994       	72.40294       	65.158134      	60.605442      	65.75817       	69.03111       	68.56861       	71.607735      	75.70542       	76.160065      	73.91911       	75.93382       	79.40199       	78.78764       	76.80991       	81.83525       	81.830315      	77.88103       	81.282196      	84.20749       	81.572235      	80.95976       	83.31804       	84.552414      	85.18256       	81.79089       	86.194244      	88.61296       	83.57327       	82.53236       	86.6442        	86.59269       	83.30432       	84.80428       	84.281166      	85.83431       	88.71613       	86.36949       	90.81135       	102.619095     	113.93102      	126.98134      	121.49307      	113.86495      	116.59606      	118.12432      	111.4772       	109.81163      	111.78446      	109.43913      	107.72688      	107.368164     	106.53706      	107.6339       	104.89296      	102.459625     	105.874115     	106.07326      	101.69613      	105.61194      	107.0815       	101.812        	102.28952      	92.42843       	78.901855      	76.59211       	77.09972       	73.66386       	73.83289       	72.61236       	72.624565      	78.88191       	
73.79025       	74.2422        	77.65577       	85.51153       	99.90175       	115.6375       	110.589386     	108.57211      	108.08731      	105.20865      	105.806854     	106.567795     	104.7467       	103.07479      	101.662125     	100.55384      	99.95707       	102.60751      	101.505615     	99.62825       	99.526054      	101.22067      	100.46676      	98.74256       	99.043045      	100.505        	99.781235      	96.06778       	83.39221       	74.85921       	69.27388       	67.84067       	67.78291       	67.655685      	69.42728       	72.874695      	72.925766      	74.05343       	80.479095      	80.8164        	78.86524       	78.0361        	77.082756      	80.85472       	83.32844       	81.1595        	82.305786      	83.70531       	83.42106       	85.37118       	86.440025      	83.248215      	83.89776       	86.0481        	86.70203       	85.53454       	85.3326        	86.78691       	87.63616       	83.90504       	82.177826      	84.06297       	84.979805      	81.979614      	84.91617       	87.440414      	91.18255       	100.84471      	115.64491      	123.87483      	119.04833      	117.92592      	116.894196     	114.14621      	111.4377       	111.61906      	112.135056     	107.85302      	108.637665     	107.08381      	106.0994       	106.62971      	106.01822      	103.7703       	103.69638      	103.828476     	104.5625       	102.298164     	102.28337      	104.27438      	103.8859       	98.61805       	85.76393       	77.60656       	75.0923        	73.61982       	73.48874       	74.2272        	74.36054       	76.51326       	
80.2878        	79.309944      	78.739525      	82.385895      	96.26375       	121.179596     	117.91562      	114.969795     	112.833954     	114.28814      	111.237724     	109.59466      	110.92497      	109.77771      	105.66455      	108.60887      	109.66157      	106.29754      	105.74775      	104.182655     	104.851616     	103.11552      	100.1991       	102.22953      	106.28141      	101.33964      	101.42981      	103.223755     	89.201775      	75.28952       	74.42013       	74.7025        	71.07253       	72.14066       	73.1725        	73.710526      	76.78551       	78.52258       	78.086174      	77.87025       	78.90975       	80.59946       	81.94393       	80.19207       	80.49539       	84.52607       	83.918495      	79.45338       	86.06209       	88.39501       	83.392746      	86.78049       	87.93741       	87.48372       	85.96352       	86.81224       	87.256996      	86.453705      	87.30262       	85.16851       	86.16359       	85.98661       	83.29799       	86.52199       	86.85735       	83.57219       	87.67365       	94.36502       	109.87248      	126.79797      	121.75325      	116.76268      	114.63517      	114.83784      	113.15911      	112.2096       	112.21248      	109.45586      	110.160164     	110.28585      	107.30457      	106.98819      	108.51538      	106.29004      	106.08421      	104.60857      	103.58609      	105.35218      	104.38466      	104.13319      	106.00621      	103.7059       	87.07553       	80.83698       	77.59173       	73.22138       	74.44196       	75.69691       	74.77103       	75.59289       	
83.83493       	82.716225      	80.91884       	82.04742       	92.85934       	118.6974       	124.57586      	117.10524      	114.06923      	115.18774      	115.36152      	110.230576     	110.598724     	105.976425     	109.30053      	103.99067      	108.2259       	107.096695     	105.75963      	105.540726     	103.79602      	103.00538      	106.20299      	104.28207      	101.48821      	104.5435       	106.27889      	106.53038      	96.99592       	82.129585      	74.643715      	74.7526        	74.68499       	71.7504        	71.68132       	73.872284      	78.08133       	75.990974      	78.150734      	81.3152        	80.254974      	78.7741        	81.21208       	81.76271       	81.37078       	81.33465       	83.42557       	83.87175       	82.21486       	83.50986       	85.93597       	87.86235       	85.645035      	85.500015      	87.44193       	88.876945      	85.84578       	86.05868       	89.223145      	87.23449       	85.289825      	87.452995      	85.93372       	84.92902       	85.49409       	84.98275       	84.11579       	89.27241       	102.51769      	123.6102       	120.98938      	117.02155      	118.03319      	114.07158      	112.57805      	112.053925     	111.25538      	109.53929      	105.998795     	105.334335     	108.52159      	108.20143      	104.68422      	104.20566      	105.70707      	105.36888      	100.67671      	103.777504     	108.151436     	104.23442      	100.32413      	105.41192      	90.72212       	77.03801       	77.939575      	81.466705      	75.96664       	72.881424      	76.27332       	79.59451       	
78.45606       	80.107346      	81.90368       	84.74048       	93.2978        	108.54595      	121.16009      	115.46601      	120.84268      	117.557655     	109.393936     	110.73683      	113.63058      	109.02143      	109.7001       	114.02617      	107.25098      	108.53736      	106.20179      	103.14397      	104.06229      	105.63858      	102.22124      	101.63299      	104.48873      	106.72538      	103.71648      	104.95171      	101.28162      	86.95303       	76.22117       	71.693665      	70.97899       	68.93444       	71.14897       	73.75457       	74.6171        	75.10216       	80.34786       	79.64847       	79.28683       	78.130615      	81.370255      	82.424385      	81.74083       	83.46183       	82.55512       	83.27782       	86.26649       	83.72653       	82.08361       	85.23409       	86.68011       	87.19584       	85.85436       	83.90285       	84.553825      	88.43608       	84.013504      	82.6212        	87.453896      	84.168106      	82.68564       	84.380806      	82.25086       	85.02009       	84.323715      	81.7555        	97.20595       	120.38439      	126.81285      	120.44959      	119.36544      	115.64         	114.07874      	113.82173      	110.988396     	108.92281      	109.819374     	108.31481      	107.03905      	103.54541      	103.53601      	109.51938      	106.02812      	102.238075     	104.59565      	108.45983      	103.33288      	100.081474     	105.119156     	105.63366      	91.57683       	79.224686      	79.26665       	72.1713        	68.008736      	73.294235      	75.90949       	73.13802       	
78.59964       	81.55678       	84.06304       	86.48466       	92.000984      	107.65003      	122.19174      	122.21585      	115.16992      	116.59816      	115.9248       	112.42626      	110.75512      	109.52873      	109.66375      	111.77042      	104.019516     	110.428276     	113.28504      	103.66364      	102.785515     	105.390144     	106.76937      	102.1208       	104.620735     	101.55389      	102.17313      	103.91382      	104.18209      	89.15943       	77.57413       	72.598236      	72.64263       	70.59228       	68.87119       	73.57961       	77.85579       	75.46127       	77.47621       	81.581825      	79.63426       	79.57657       	80.677864      	82.52544       	83.32214       	82.44128       	82.08025       	85.20801       	86.10848       	83.11311       	84.65602       	87.7457        	86.758415      	84.72404       	85.09423       	86.781654      	87.096634      	85.33936       	88.1955        	89.786446      	86.92216       	86.531654      	87.23371       	84.861015      	82.78256       	87.32462       	87.71762       	84.79668       	92.29095       	113.39666      	126.74684      	118.50441      	118.06222      	119.47437      	116.629776     	111.18041      	113.112625     	113.408936     	110.271904     	107.8897       	110.018524     	109.27316      	104.95362      	106.314644     	107.03694      	104.78638      	103.06447      	104.17711      	108.2256       	101.74637      	100.56524      	107.34551      	101.22405      	81.41606       	76.62275       	77.331345      	74.47957       	72.844376      	76.509285      	77.22326       	
79.514046      	77.371506      	79.26294       	86.915535      	98.70491       	108.0445       	118.419205     	119.5486       	120.55163      	114.69305      	110.25522      	113.4745       	116.67809      	110.532555     	107.21648      	113.86205      	113.5129       	103.59323      	104.02621      	109.16394      	107.361984     	103.08743      	105.93715      	111.43258      	105.46597      	102.65832      	104.827934     	105.3892       	103.8176       	93.97106       	81.88978       	77.780716      	72.552895      	70.24527       	72.362015      	71.913475      	73.30559       	80.107414      	83.04927       	77.643486      	80.796646      	81.6571        	79.226524      	80.28055       	82.94614       	83.12773       	82.42437       	82.97649       	85.2049        	86.182495      	84.89643       	86.174614      	89.539955      	86.323456      	84.36152       	89.7637        	89.448784      	84.94568       	85.06367       	90.214005      	88.92473       	85.10875       	86.68021       	87.82286       	85.56739       	86.80217       	85.7664        	87.64717       	96.279465      	106.0975       	121.42188      	124.36754      	118.93559      	113.250656     	114.76423      	112.81946      	107.399994     	109.283936     	108.95157      	109.39413      	107.741936     	106.73535      	104.61853      	103.1447       	104.66223      	103.74448      	103.10596      	105.106735     	104.11354      	103.54079      	102.22173      	103.75507      	103.33765      	89.74613       	78.05667       	75.62496       	76.52217       	72.417         	72.98559       	75.7449        	
84.53685       	83.353065      	83.04635       	83.41951       	85.73827       	98.30437       	116.13248      	124.24215      	114.95326      	113.36452      	115.05359      	112.01324      	110.17799      	112.399666     	115.0612       	109.15849      	109.17293      	107.87182      	109.67634      	105.67967      	108.67302      	107.17046      	106.33837      	101.2797       	100.3936       	103.24861      	103.992325     	103.22121      	103.49158      	99.52503       	83.58463       	75.7926        	71.1306        	70.9426        	73.13707       	74.18986       	76.26836       	77.71292       	76.22045       	77.263885      	82.58948       	81.228874      	80.23902       	82.60286       	82.48108       	81.08212       	84.94967       	86.32939       	85.77924       	85.84356       	84.798965      	86.33589       	87.23229       	85.256065      	87.30755       	87.56694       	85.85213       	87.735245      	88.451614      	87.213165      	86.2943        	87.31217       	85.70506       	84.0017        	83.16802       	83.2519        	85.20488       	86.41957       	91.12181       	107.38548      	123.67102      	122.561775     	118.88707      	118.28638      	114.47176      	112.93771      	112.86011      	108.98357      	107.32451      	107.978096     	106.71325      	104.407265     	109.10733      	109.90946      	108.452705     	105.05988      	105.6121       	107.05615      	107.57455      	103.27001      	104.84883      	104.33704      	103.66881      	89.51588       	77.37717       	73.876656      	71.72722       	69.83422       	69.04347       	71.32657       	
80.445244      	80.248375      	80.29199       	80.70936       	84.47371       	96.565414      	113.749115     	120.225815     	117.28633      	118.91834      	111.28259      	110.9417       	115.57132      	113.735794     	108.985405     	108.617134     	109.34484      	109.578094     	105.02028      	102.88249      	108.021576     	105.209625     	100.25575      	103.73755      	105.6212       	106.294        	103.49061      	105.02064      	102.2272       	95.1488        	80.754265      	76.207184      	69.92373       	67.27653       	68.76611       	72.093475      	74.04095       	74.41779       	78.463394      	81.21298       	75.321945      	80.34473       	88.347725      	81.61482       	80.726204      	84.35314       	83.25663       	81.84331       	81.43274       	82.653496      	87.042694      	85.90408       	82.52634       	87.556625      	90.174805      	83.05899       	84.10531       	89.34985       	87.693954      	83.22563       	87.37674       	87.34485       	83.592964      	84.393684      	87.62941       	84.97154       	83.0054        	82.6276        	89.25288       	100.69841      	116.586716     	126.32979      	123.88726      	113.03144      	110.36827      	117.84842      	114.01901      	108.4436       	110.20992      	110.08485      	108.914474     	105.67536      	104.94854      	108.01629      	107.66397      	101.515785     	103.40836      	105.64751      	101.4348       	100.97094      	105.74983      	105.01708      	101.728165     	95.56282       	82.015854      	73.58632       	71.3389        	71.7233        	72.97242       	71.8701        	
80.96627       	81.6244        	81.82251       	82.925285      	85.64083       	94.000725      	110.061066     	122.9176       	120.95153      	116.52641      	115.26412      	115.708916     	113.617874     	110.54302      	111.46798      	111.18814      	108.949875     	106.78764      	108.24027      	109.572586     	105.68764      	106.15068      	104.808266     	104.18206      	102.69225      	102.54187      	104.48286      	100.83451      	100.96883      	103.49836      	88.31888       	75.40887       	73.49084       	72.53007       	71.06217       	71.39316       	72.74671       	77.12214       	80.76659       	79.58599       	78.33997       	80.489624      	81.094475      	78.920204      	79.706345      	84.70113       	83.141266      	84.4928        	84.76022       	83.42471       	86.12596       	84.12198       	85.11549       	85.89031       	86.60921       	85.71331       	87.68306       	87.80432       	84.36616       	84.89197       	88.46606       	88.53605       	86.151596      	85.27259       	87.20352       	88.36198       	83.33813       	83.4949        	89.22069       	97.32979       	111.8717       	129.19647      	123.90356      	115.87957      	116.14259      	115.98117      	111.24059      	109.43858      	111.3633       	111.248184     	106.67004      	106.33864      	109.03932      	108.72954      	105.25595      	105.43554      	108.19351      	104.11107      	101.04435      	106.16425      	105.2452       	101.839554     	102.48253      	98.85413       	83.683716      	78.067764      	77.87525       	79.2065        	80.50891       	73.12236       	
77.98572       	81.67766       	83.833855      	84.6237        	84.09744       	88.55639       	109.479        	120.797455     	119.47677      	117.20238      	117.99891      	115.62968      	111.88986      	111.90333      	113.692245     	109.85035      	106.22475      	105.80657      	107.973305     	105.57146      	104.86002      	105.700165     	104.13513      	102.158615     	105.13178      	107.67224      	104.47548      	101.32582      	102.225266     	105.020966     	85.70455       	76.16806       	77.487274      	73.92277       	69.16145       	71.62593       	76.69365       	76.63343       	74.64194       	79.81027       	85.994576      	80.62792       	75.87924       	82.97623       	85.61799       	78.685486      	81.66096       	87.187744      	82.84179       	80.83387       	84.482864      	86.50929       	85.69903       	83.33613       	88.271416      	86.285576      	84.93318       	83.25628       	86.97091       	88.98278       	84.601265      	85.6517        	90.05838       	86.97435       	83.83215       	85.58343       	85.524185      	82.60515       	82.81276       	89.76667       	109.80021      	122.03967      	117.05824      	115.93117      	115.24047      	111.29595      	111.49142      	113.18012      	110.42901      	105.426254     	110.06344      	108.17827      	106.48365      	106.35571      	107.05972      	106.53247      	105.33869      	103.370285     	102.7216       	102.74833      	102.349625     	102.48874      	102.2511       	99.22584       	91.428375      	91.83116       	89.867485      	84.030136      	85.540985      	83.48805       	
83.01241       	80.056404      	81.13862       	84.43135       	88.05835       	92.46658       	104.39718      	117.33758      	123.84783      	121.50325      	117.1303       	114.52129      	115.31771      	113.001724     	109.89293      	111.73198      	108.87802      	105.76256      	112.443886     	109.681076     	104.11839      	104.67423      	107.25382      	103.92817      	102.20983      	100.89792      	102.99493      	102.63946      	101.06662      	104.195366     	100.56983      	83.37992       	74.5216        	76.34616       	74.21722       	69.78183       	75.35729       	77.37544       	73.79743       	74.66742       	81.9943        	86.26029       	81.64843       	82.55189       	83.19067       	86.808975      	81.32441       	82.944176      	87.45586       	84.22342       	80.91362       	85.589066      	87.79041       	85.21391       	85.99512       	86.06224       	87.70252       	87.49283       	84.25385       	86.8927        	90.16503       	83.69351       	85.06445       	87.04809       	85.214264      	84.285576      	86.26046       	84.379974      	85.177734      	91.126884      	106.92046      	118.21219      	120.42276      	117.71484      	117.5693       	115.15257      	113.7467       	112.187294     	114.00902      	111.394966     	107.28768      	110.61205      	109.146126     	105.206215     	104.10235      	107.3837       	105.79363      	102.66598      	104.908325     	105.881805     	103.21951      	103.15958      	102.763016     	103.78604      	104.03381      	103.43168      	93.6397        	90.22177       	87.45081       	87.170334      	
83.22569       	82.50377       	81.58156       	80.0746        	82.80143       	92.48361       	99.92412       	115.1814       	122.34406      	118.85334      	116.14647      	114.354805     	112.59482      	115.481064     	113.32604      	109.25416      	110.88823      	111.3092       	106.33557      	107.38996      	109.7203       	105.15349      	101.862885     	104.06544      	106.91133      	100.72192      	101.413704     	103.93211      	103.64416      	102.23971      	98.91968       	89.881226      	80.67421       	70.52159       	71.435036      	74.6423        	73.700905      	72.38612       	77.63317       	79.07023       	78.10059       	79.32488       	77.795296      	83.22818       	84.18099       	79.32527       	83.61895       	84.92223       	81.72485       	83.61409       	85.487495      	83.11253       	85.94595       	84.136345      	84.48267       	84.50943       	85.1742        	87.750824      	87.10148       	85.30575       	86.27894       	88.64906       	86.15972       	84.380165      	87.161285      	88.11012       	83.552284      	83.768036      	88.11011       	89.39966       	100.35139      	117.16088      	128.50343      	121.137115     	117.281815     	116.295044     	116.47363      	114.15425      	110.72431      	111.22267      	110.641884     	108.17529      	108.26242      	108.3401       	105.21046      	104.916916     	106.3457       	104.52645      	104.019196     	104.815025     	104.612434     	108.729904     	106.461426     	104.655365     	104.079475     	104.5212       	101.06998      	97.461075      	94.28696       	90.24086       	
81.664536      	82.38056       	82.62492       	83.25179       	84.07674       	86.088425      	91.03065       	111.48304      	123.02437      	116.16395      	117.766106     	117.728355     	113.37471      	112.74596      	113.456825     	110.61302      	108.37508      	110.1172       	108.72822      	106.791885     	108.2757       	108.82496      	106.68185      	104.39133      	103.869156     	104.118        	103.75487      	101.33702      	102.30245      	105.74205      	102.38937      	92.496185      	81.05124       	75.72284       	72.83736       	71.537415      	71.16663       	73.54671       	75.26152       	76.84377       	77.673195      	79.027794      	78.956696      	80.394585      	80.62341       	80.95519       	80.74995       	81.66071       	83.35026       	85.185165      	81.502106      	83.46445       	84.53132       	85.14169       	83.59142       	85.02717       	85.96773       	86.86109       	85.2177        	84.72863       	85.89746       	85.53698       	85.757         	86.92017       	86.05799       	83.17746       	84.97548       	84.2522        	83.059204      	82.14168       	92.28309       	112.251236     	126.16691      	118.369064     	118.19971      	117.79926      	112.18204      	110.31791      	113.64863      	112.12061      	108.797646     	108.87685      	108.84896      	108.98703      	104.410934     	107.85376      	105.15624      	106.27898      	103.58974      	103.633995     	103.72712      	103.40115      	103.58454      	103.07511      	102.82251      	100.43932      	103.30099      	104.6058       	101.580185     	100.862335     	
80.34854       	84.75528       	84.97393       	83.634384      	80.16971       	82.81633       	89.405685      	102.4218       	120.47442      	120.597534     	118.15353      	118.25023      	115.225296     	111.88497      	110.16181      	111.76681      	110.06965      	109.55229      	109.343094     	107.173744     	105.81942      	107.708984     	105.32617      	104.294365     	105.05592      	102.57024      	101.73268      	104.33919      	102.76608      	102.56369      	105.217964     	95.58366       	79.79959       	75.66925       	73.30952       	70.99427       	69.45798       	71.33829       	73.8198        	73.93343       	73.62196       	77.80148       	79.4474        	77.27229       	78.51104       	80.530266      	81.071815      	79.86256       	79.53464       	86.06139       	88.458115      	84.97077       	84.08855       	83.909836      	85.90471       	85.22782       	84.70308       	84.817505      	84.96048       	85.19145       	87.993904      	85.16227       	83.83617       	84.93952       	85.18578       	83.88009       	83.691124      	84.09671       	84.241684      	85.37452       	89.863556      	99.93641       	120.07022      	121.3138       	115.84069      	114.37789      	112.21211      	111.564575     	110.669304     	110.02738      	111.165405     	109.629326     	106.29684      	108.07946      	106.96209      	103.329704     	103.06241      	107.747696     	103.19716      	101.56605      	103.13646      	101.59973      	102.62774      	101.63005      	102.63024      	102.57289      	101.07598      	99.74902       	99.72462       	100.44433      	
82.27214       	80.93134       	80.53346       	82.77391       	83.6726        	85.68853       	88.75835       	99.63402       	115.64091      	123.8374       	119.13197      	117.48202      	116.3884       	113.292465     	112.847336     	112.74788      	114.200676     	113.01539      	109.015144     	109.00118      	109.096634     	106.170494     	106.56959      	104.86125      	102.80679      	102.66701      	104.16407      	101.89876      	102.41082      	101.43598      	103.028244     	101.26424      	85.381096      	77.74183       	74.18483       	72.33666       	72.99788       	73.63832       	73.083626      	73.448235      	78.002594      	79.805664      	78.94333       	79.33253       	81.61144       	83.152824      	83.77204       	82.67074       	83.63424       	85.879715      	83.235115      	84.02795       	85.48095       	85.491615      	86.54007       	86.29477       	85.73117       	86.78438       	87.91158       	86.963875      	84.89926       	86.47124       	87.69146       	88.33606       	86.8343        	84.1215        	85.444984      	86.29434       	83.820564      	83.446365      	88.00131       	97.412704      	108.374664     	126.05335      	120.14369      	116.39039      	113.922676     	111.92644      	112.85949      	111.853065     	107.68697      	107.603485     	107.87536      	107.35405      	107.39941      	106.12191      	105.15087      	105.47983      	104.71739      	103.26661      	103.31634      	104.826485     	98.50374       	101.1871       	104.473915     	100.967476     	102.12275      	102.01775      	101.46092      	100.24505      	
82.53139       	85.09714       	86.678154      	87.40153       	84.701935      	83.37976       	87.35287       	98.10104       	109.033485     	120.13142      	120.70936      	118.50203      	115.77819      	116.10338      	115.185684     	112.00552      	110.32204      	109.152115     	110.497696     	107.76046      	107.18674      	107.923615     	108.943695     	106.68169      	105.22769      	104.17753      	104.59985      	102.62744      	102.28543      	104.319084     	104.80002      	100.44108      	87.548744      	80.044556      	73.800156      	72.92003       	74.8853        	74.189835      	73.12265       	75.66476       	79.9153        	80.00941       	79.051094      	80.67586       	80.90022       	81.559494      	81.412476      	82.12065       	83.88667       	84.46266       	85.31918       	85.825676      	86.793175      	87.37967       	85.86764       	87.52835       	86.12208       	84.95895       	85.29164       	88.06351       	85.87594       	85.52518       	86.130585      	82.37988       	83.920044      	86.77007       	85.013756      	86.904305      	84.412796      	88.79862       	83.50426       	91.86503       	106.83092      	121.81581      	119.43416      	118.376656     	118.30287      	115.32816      	111.91735      	112.31578      	113.51514      	108.90612      	107.91898      	112.44401      	110.11846      	105.18011      	105.02576      	108.6292       	106.6711       	104.09999      	105.17708      	110.5705       	103.7729       	101.079765     	102.7441       	103.952194     	103.95595      	101.293        	102.46193      	101.834625     	
83.924805      	83.598946      	84.01926       	86.19538       	86.81547       	86.56339       	87.632355      	92.560715      	107.753494     	120.16348      	123.914024     	117.10312      	117.103065     	116.8481       	112.96476      	111.29636      	113.297966     	112.026855     	108.245346     	107.18887      	107.88106      	106.90796      	103.94445      	105.04556      	103.88348      	103.109146     	103.45333      	103.83298      	103.32509      	102.20049      	102.43196      	103.39677      	92.829575      	79.88701       	73.05008       	74.31573       	75.070816      	75.21941       	76.076996      	77.5438        	78.04538       	79.19024       	77.50909       	82.16219       	83.174324      	79.812454      	82.32012       	86.410194      	82.094         	81.08924       	85.56135       	86.40962       	83.30749       	83.87683       	86.5847        	86.06165       	84.842896      	83.346436      	86.68864       	88.16078       	82.949776      	85.623856      	91.72108       	89.24338       	88.475815      	87.27956       	88.83719       	89.36783       	90.53261       	88.31646       	92.63065       	92.88384       	98.59675       	125.14115      	126.748405     	118.48083      	117.5264       	117.08667      	114.23043      	112.97334      	112.672745     	109.62507      	108.851494     	107.99398      	106.31474      	107.722855     	105.75574      	104.25659      	106.774574     	105.81144      	102.162        	104.12419      	105.871056     	103.892        	101.22889      	100.32816      	106.2703       	103.51462      	102.20112      	100.43454      	
86.53234       	85.233505      	83.3133        	83.02844       	84.33481       	86.58581       	86.51234       	86.88612       	101.74324      	117.442505     	123.15824      	113.01816      	110.54881      	115.453606     	110.85079      	107.80926      	109.75081      	113.10535      	107.20744      	104.57449      	107.37415      	107.28824      	103.28527      	103.38566      	104.614296     	103.79915      	100.155136     	102.19008      	106.16586      	102.96057      	100.90815      	104.5127       	95.333374      	79.2987        	75.571045      	75.94272       	71.63547       	69.82811       	74.353386      	78.262825      	77.042046      	75.69734       	77.58167       	81.383224      	78.8897        	76.641975      	82.903534      	84.52507       	80.57354       	80.92994       	84.34794       	83.03687       	80.87306       	84.9786        	83.84035       	83.72243       	83.62194       	83.67345       	84.086136      	84.67456       	82.2332        	87.58986       	85.05928       	86.771675      	96.49649       	98.61817       	94.01444       	91.8874        	97.899155      	99.142944      	100.940315     	102.60361      	106.15754      	123.573204     	120.60924      	118.35985      	117.02957      	113.06116      	112.787476     	112.44931      	109.00508      	108.68769      	110.677086     	108.64855      	104.88725      	106.06496      	106.56723      	105.42412      	103.25549      	102.299934     	102.255035     	102.464386     	101.31782      	100.53658      	101.784706     	101.49132      	100.35181      	100.14357      	100.19813      	100.02808      	
81.67115       	83.06325       	86.243866      	88.7351        	86.568085      	83.8276        	84.65666       	89.56902       	96.54969       	112.421844     	123.66052      	121.792816     	116.5575       	113.64473      	115.63178      	113.36601      	110.33455      	110.69451      	112.24597      	108.15163      	107.127884     	106.82419      	106.56656      	104.763535     	103.5067       	105.01234      	104.41113      	100.924805     	103.26478      	104.680855     	103.85332      	103.16686      	97.44694       	82.51027       	74.53904       	73.012405      	70.00224       	69.413345      	73.54859       	74.49667       	72.95466       	76.24476       	78.10546       	81.06609       	80.66375       	78.36822       	79.81276       	82.04141       	81.64583       	81.42974       	83.44598       	83.32299       	81.25479       	83.04159       	82.15923       	85.98089       	87.14925       	88.40827       	86.18609       	88.82832       	86.28898       	87.730804      	96.439285      	94.773766      	98.5003        	100.41258      	102.41674      	102.15241      	105.66025      	107.42774      	101.93249      	104.79509      	114.37292      	121.91048      	116.18332      	113.83412      	111.75395      	109.66375      	107.00176      	106.21461      	106.77828      	104.1633       	104.50062      	106.56637      	104.6256       	102.03165      	104.20985      	103.77034      	101.23241      	102.27912      	103.539566     	101.2221       	99.72978       	99.67673       	100.60082      	101.7776       	99.19943       	97.300995      	97.73315       	99.531685      	
84.48612       	82.56702       	82.23796       	83.57556       	85.00483       	84.46611       	82.659004      	88.98383       	99.04549       	108.21415      	121.082405     	120.27449      	118.0896       	114.83883      	111.784134     	114.03149      	110.978264     	109.125595     	107.817535     	107.63716      	108.15947      	106.708176     	105.15516      	106.590805     	105.26161      	104.291374     	104.5143       	103.57326      	102.18523      	101.74831      	103.4954       	102.55024      	99.37695       	87.41408       	80.12865       	76.40473       	72.92762       	72.24107       	73.544815      	74.85887       	75.13868       	76.98101       	77.6059        	78.45224       	79.09563       	79.92497       	80.13611       	78.78841       	82.090004      	83.61772       	81.68382       	86.798416      	87.84471       	86.718475      	88.04398       	91.38317       	96.75046       	95.07746       	93.12059       	93.68628       	97.566086      	101.73439      	101.775276     	100.54374      	103.28421      	106.24865      	106.166794     	110.72371      	110.13661      	114.73111      	121.409065     	116.68134      	111.20473      	112.37636      	112.226616     	108.36775      	107.7511       	108.21314      	107.87544      	106.50099      	104.60771      	104.50754      	104.40864      	104.33095      	101.9563       	101.36683      	102.9744       	101.539116     	100.14483      	100.926025     	99.650276      	99.093956      	99.82577       	98.52461       	97.95506       	101.553024     	97.91114       	95.094604      	99.27591       	99.32191       	
83.02941       	84.452194      	85.219536      	86.45454       	87.2471        	85.73288       	83.99639       	87.295204      	93.88562       	110.56988      	121.939415     	125.39544      	120.215614     	113.56025      	113.35819      	114.01151      	111.08473      	110.08423      	108.44284      	107.9736       	108.445404     	105.698555     	105.319        	106.59326      	104.57401      	104.35589      	107.147026     	106.18127      	104.052216     	105.844444     	105.92522      	105.189384     	103.88839      	89.561325      	79.87301       	76.64261       	71.18483       	70.223175      	75.363106      	78.09008       	74.75941       	76.63268       	79.056         	77.978165      	80.56347       	81.107956      	80.3164        	83.00557       	86.30533       	86.74622       	91.8569        	96.15369       	94.14933       	92.67201       	96.18582       	97.35052       	98.387505      	97.901405      	96.96663       	100.9832       	107.93526      	107.67937      	109.860596     	109.44444      	110.38738      	115.83326      	117.98844      	112.81462      	110.85088      	108.422165     	105.35831      	107.44499      	108.33351      	105.570625     	105.74022      	104.73428      	103.20889      	104.55779      	103.91442      	101.978966     	100.644196     	98.74295       	101.39521      	100.168205     	96.90825       	97.95043       	99.79826       	98.55322       	95.569374      	96.39765       	99.12924       	98.01572       	97.80489       	96.11345       	96.95319       	96.77076       	95.71304       	96.94803       	97.29886       	96.81021       	
83.32944       	84.92032       	84.974174      	84.25029       	84.32251       	84.40266       	85.2924        	85.18937       	89.55873       	106.01209      	116.04351      	122.47574      	117.5324       	116.0935       	114.83379      	113.53283      	112.03361      	109.66698      	107.08012      	106.8061       	109.068535     	107.85128      	103.57216      	103.75955      	107.49695      	104.24773      	101.07392      	104.99305      	104.57714      	101.45429      	100.89841      	104.90164      	103.07293      	89.27972       	78.10751       	75.40188       	70.59139       	68.76065       	72.47966       	76.47193       	73.6459        	73.66504       	77.916985      	81.84253       	79.46676       	82.30954       	91.08581       	92.10287       	85.99633       	88.52197       	90.93539       	91.91934       	91.01167       	96.76257       	97.84063       	97.82265       	99.939095      	103.84025      	107.52551      	108.45429      	111.61933      	116.73755      	114.9954       	113.54716      	111.97316      	107.09379      	101.925766     	102.66593      	105.47188      	101.54156      	98.70211       	98.66767       	102.04166      	101.094406     	96.60767       	97.99796       	100.48494      	97.2415        	95.67704       	99.54394       	97.32115       	95.399796      	96.61414       	97.680016      	95.84344       	94.8403        	96.041626      	97.43258       	95.30978       	92.8566        	96.55089       	96.20728       	94.97704       	93.39987       	96.01793       	96.56246       	93.77044       	95.98466       	96.78698       	92.03651       	
81.56848       	82.17082       	82.99804       	84.749344      	85.25415       	83.55191       	80.56882       	85.39117       	91.66723       	100.23077      	116.24553      	125.53554      	119.39205      	115.87049      	114.07116      	112.06845      	110.76538      	110.57022      	109.15071      	106.42461      	105.47074      	105.913536     	106.73302      	104.95086      	103.47293      	105.80867      	105.59657      	102.75143      	101.192764     	102.656334     	103.20134      	102.30219      	103.072495     	97.17472       	84.09741       	77.11598       	73.43213       	72.91438       	75.27215       	76.97623       	78.02392       	77.02113       	77.69811       	81.38839       	88.28752       	82.91296       	85.45843       	91.80758       	93.10084       	93.59651       	92.95128       	99.5489        	102.04473      	99.385506      	105.940445     	110.19636      	111.83851      	112.81003      	114.483475     	110.35292      	107.97786      	105.65861      	103.99541      	102.267746     	101.33349      	101.942345     	99.88671       	100.95397      	99.13472       	97.343376      	99.042694      	98.44552       	97.14871       	96.75898       	95.93623       	95.466354      	95.773994      	97.522705      	94.38537       	93.025406      	93.21579       	94.257126      	93.7179        	94.57069       	95.345245      	95.252         	93.63213       	91.53586       	96.13842       	97.78624       	91.51625       	92.4845        	93.06922       	95.09056       	91.46229       	92.9879        	92.97885       	92.0133        	92.74304       	92.24092       	
81.4341        	80.647896      	82.08032       	85.28772       	87.11421       	85.01291       	82.979004      	82.015396      	86.410385      	97.009674      	113.096886     	122.675446     	119.58141      	115.420296     	111.71178      	116.59529      	118.57918      	110.252716     	110.172745     	111.06489      	106.78393      	105.52251      	107.93639      	107.03221      	103.15724      	103.541504     	107.340256     	105.32739      	101.76863      	102.715324     	105.418304     	103.47382      	98.666985      	100.18782      	89.563385      	82.33712       	80.37244       	79.67424       	78.93553       	77.69097       	80.84443       	80.70063       	81.53812       	82.00121       	87.179985      	89.575714      	86.09264       	90.3742        	97.22045       	99.00396       	101.76407      	103.50398      	111.52589      	112.87059      	110.52343      	105.98778      	103.9908       	104.08653      	97.08907       	97.99123       	98.662445      	99.12428       	99.02026       	97.423134      	96.335846      	96.05767       	94.08145       	94.30151       	96.451225      	96.39183       	93.80766       	95.87147       	94.00943       	99.072685      	98.72731       	98.34691       	95.16537       	97.70612       	96.52356       	93.48373       	93.4629        	95.852165      	94.01929       	94.53556       	94.233345      	93.969795      	94.328865      	91.67846       	92.525314      	93.96659       	94.459305      	91.079155      	91.248856      	93.88626       	92.4518        	93.09395       	91.51562       	94.18859       	96.92509       	93.457245      	
82.16361       	82.04102       	82.27336       	83.81037       	85.05521       	86.16411       	85.78468       	83.93619       	83.45698       	91.27741       	110.61646      	123.82768      	121.42688      	119.16591      	115.313774     	113.306526     	112.10768      	110.914795     	108.814545     	109.70423      	108.43387      	107.86342      	106.90567      	105.02547      	106.95141      	106.464935     	103.4652       	104.893936     	104.77962      	99.62548       	101.48971      	103.920334     	101.503654     	101.66237      	103.47259      	99.986534      	88.36377       	80.92115       	81.86156       	85.10114       	88.242935      	87.38777       	85.85877       	98.010124      	97.07072       	98.8127        	100.73272      	98.12062       	105.14404      	112.67296      	108.16028      	105.102425     	104.10949      	103.274994     	103.67095      	101.425095     	98.53846       	100.777664     	101.11236      	98.3837        	98.545044      	101.74468      	101.98906      	98.05541       	99.334755      	98.61652       	96.893936      	96.39865       	96.04158       	96.74968       	95.02665       	93.95981       	94.79747       	97.1784        	94.946365      	92.2245        	93.29943       	96.2233        	95.153435      	94.673386      	95.0939        	96.84352       	94.15783       	95.26075       	93.90841       	94.591156      	94.296684      	93.625824      	96.59199       	94.885254      	94.342155      	93.8521        	94.83509       	94.86323       	93.87006       	93.79203       	92.16931       	95.112885      	97.02755       	92.92502       	
83.51138       	81.87785       	83.04467       	85.54271       	86.69067       	85.34856       	83.62261       	83.81953       	86.858         	89.55614       	100.883835     	120.17803      	127.62789      	120.4353       	115.03507      	115.59242      	115.63945      	110.20307      	108.40907      	111.3228       	108.19011      	105.62919      	106.58371      	108.76271      	104.060196     	103.9347       	105.20586      	104.357506     	102.493484     	102.58137      	104.429214     	104.041824     	100.771835     	102.26729      	103.12281      	104.002045     	95.6153        	91.77335       	94.54002       	93.358246      	91.9434        	97.92477       	99.77255       	102.81648      	102.71467      	107.014786     	111.91082      	105.86986      	101.28512      	102.020355     	99.44323       	98.0413        	99.09927       	98.44215       	95.17212       	95.65677       	96.60535       	97.36937       	93.91582       	94.97344       	97.71404       	95.32343       	92.23507       	94.20604       	96.24934       	92.91232       	90.753784      	94.61303       	94.1517        	92.217155      	94.547165      	97.909966      	93.274         	92.69458       	96.00098       	96.72557       	93.16275       	92.30522       	94.93324       	95.63977       	93.19756       	91.34798       	95.03911       	95.7552        	91.85267       	92.17934       	95.6029        	94.281296      	93.60607       	93.5572        	93.860214      	92.33654       	93.2362        	94.23707       	94.281586      	92.55671       	97.93861       	97.96992       	96.54098       	91.50599       	
82.62084       	82.54393       	82.40349       	81.99655       	82.665695      	82.36342       	81.702194      	81.5822        	84.28967       	88.12747       	94.92061       	112.23865      	124.37277      	117.68661      	115.91556      	116.3743       	115.78671      	112.73823      	111.97313      	111.71776      	110.68649      	109.16094      	106.61176      	106.53837      	106.91642      	104.99873      	105.90764      	106.23603      	104.76854      	103.76076      	105.22067      	103.62861      	101.944664     	104.77392      	104.356804     	101.59893      	102.286446     	103.58366      	104.09091      	101.91733      	99.63562       	100.56841      	102.29068      	98.42674       	99.12256       	100.58432      	99.40434       	98.08158       	100.288445     	97.11748       	96.14477       	98.65349       	98.81686       	96.27128       	94.46355       	96.04496       	97.91407       	95.3492        	92.31524       	95.41463       	96.32153       	93.838425      	94.06051       	95.85839       	92.47587       	94.14688       	96.85391       	95.446655      	92.31349       	94.95102       	96.63252       	92.45252       	91.909966      	93.129974      	93.95749       	90.261314      	92.11708       	96.103         	92.43134       	92.86091       	92.254555      	92.12021       	92.93141       	93.24773       	95.030754      	90.77646       	92.172485      	95.13168       	92.91043       	92.39315       	94.47889       	92.04565       	92.692505      	94.96406       	93.44835       	93.53556       	91.942345      	90.844025      	94.1924        	96.08986       	
82.391365      	79.96967       	80.66786       	82.81109       	83.77054       	82.33004       	83.55183       	83.94483       	83.18293       	87.295395      	94.844025      	106.8607       	120.92055      	124.21968      	117.69821      	114.45224      	115.89159      	112.65379      	108.386604     	110.641464     	109.73534      	106.483925     	104.62224      	106.16619      	107.20045      	104.53185      	104.334785     	107.66585      	105.980316     	100.43128      	102.95566      	105.495964     	102.38576      	99.98671       	104.467155     	104.72137      	100.39074      	100.26378      	103.08515      	102.041626     	98.581055      	97.661         	102.13543      	98.71296       	94.33819       	98.61435       	99.30061       	95.88716       	95.73088       	98.457565      	97.27315       	93.89059       	94.73723       	100.49508      	94.631874      	92.021416      	93.58922       	96.9476        	90.61804       	92.35643       	94.12989       	92.15949       	92.403725      	92.35859       	93.13948       	92.177414      	90.00502       	91.3976        	93.874985      	91.2635        	86.96028       	92.23227       	92.05278       	90.400665      	93.44531       	92.805466      	91.147514      	91.68389       	91.490005      	91.09483       	91.2527        	90.574234      	92.87126       	91.17659       	88.0252        	91.363754      	92.36376       	90.27005       	91.901115      	91.831245      	90.48256       	90.776985      	93.65771       	92.08183       	90.38595       	91.758705      	91.09128       	93.073784      	92.25941       	90.60568       	
84.27679       	84.11144       	82.25959       	79.92496       	79.315796      	82.552414      	84.45378       	80.39369       	79.08601       	86.76739       	93.511185      	102.419525     	112.07735      	124.67052      	120.19874      	113.67498      	113.06192      	115.249565     	110.905464     	108.72718      	110.23282      	107.39061      	104.6825       	105.17156      	106.10223      	104.063324     	102.46974      	103.84761      	104.41767      	101.19084      	99.160645      	102.97366      	102.77596      	98.48315       	99.76009       	102.38075      	100.07863      	97.87023       	99.8464        	99.65329       	97.88952       	96.26297       	100.015335     	100.024        	96.72005       	95.815414      	98.129814      	98.12977       	95.13649       	95.38807       	98.484985      	96.26021       	94.12033       	95.881294      	95.20508       	95.24724       	97.896225      	96.94787       	97.6929        	96.79506       	94.68443       	97.66664       	95.2849        	93.158165      	95.0612        	98.3305        	93.70614       	93.4322        	96.620674      	96.18674       	93.51663       	92.03028       	93.83819       	94.62016       	93.26279       	90.951294      	95.13344       	95.045586      	90.11042       	91.056854      	93.414536      	91.390366      	89.2428        	92.784775      	91.20274       	88.68987       	92.69353       	91.98371       	91.692635      	91.04236       	92.44899       	92.85329       	90.14654       	91.4014        	93.92951       	93.642166      	91.381         	94.19486       	93.84105       	90.86113       	
79.387566      	80.83912       	83.76433       	85.88248       	85.19828       	83.09087       	85.22571       	84.93221       	85.70021       	83.79838       	87.407906      	99.307655      	111.5238       	127.96696      	122.455696     	118.10001      	116.23706      	117.83068      	115.228035     	111.65367      	112.650475     	112.04997      	110.132286     	105.54343      	105.130585     	109.54249      	105.03615      	102.52898      	106.834755     	106.32682      	103.05441      	102.13761      	104.23237      	104.99803      	101.70509      	100.290276     	102.875        	103.753746     	101.16391      	102.00153      	102.839264     	100.083        	100.64795      	100.370346     	97.49548       	97.007034      	96.369995      	98.04697       	98.68173       	97.80676       	97.800255      	99.31063       	98.09108       	94.91154       	97.61856       	99.54515       	96.04647       	94.38846       	96.81446       	95.82422       	96.196945      	95.98748       	95.39342       	97.48927       	96.13942       	91.59638       	95.43216       	97.5109        	91.917         	93.13199       	96.34699       	93.4284        	91.193405      	93.79781       	94.30046       	97.757034      	93.5149        	94.32246       	94.79445       	94.639595      	91.62608       	94.16679       	94.34264       	92.071465      	93.26989       	94.88878       	92.18084       	92.18654       	96.663574      	92.829185      	92.01269       	92.37221       	93.78124       	93.522675      	91.36373       	92.26278       	96.260414      	93.16248       	91.48137       	93.87505       	
82.41733       	81.77266       	82.40361       	84.89937       	87.71073       	86.380005      	86.04634       	86.971855      	86.16326       	89.15862       	88.512375      	94.37915       	106.517365     	125.54847      	122.43645      	117.78602      	118.10114      	115.76342      	114.423874     	113.476326     	112.92423      	110.7314       	109.81409      	109.616425     	109.0776       	107.02783      	105.33634      	106.2008       	109.10567      	105.60835      	103.450775     	103.60494      	103.241646     	101.587906     	101.51004      	102.8065       	103.09691      	99.20012       	101.66127      	100.58806      	97.929306      	98.06881       	101.226105     	101.25446      	97.614265      	97.63771       	101.0523       	99.80931       	96.896576      	97.18526       	99.60783       	97.131516      	96.68216       	97.59874       	98.91463       	95.77417       	95.8637        	96.776665      	96.355354      	95.67365       	96.06715       	96.78632       	95.20586       	95.98642       	96.836426      	94.95055       	94.191284      	95.2294        	96.55634       	96.22685       	93.29187       	95.40673       	95.89383       	93.74102       	92.23706       	94.969894      	93.580154      	92.53304       	94.2597        	94.782875      	95.210556      	93.405014      	92.99969       	94.35059       	92.46589       	93.042404      	94.247696      	93.636246      	92.80265       	94.14159       	95.67162       	93.66105       	92.50986       	94.2653        	93.82521       	94.090164      	91.09565       	92.5           	95.34909       	94.58993       	
85.80563       	87.9797        	87.948845      	85.40034       	82.62767       	86.84764       	92.837555      	89.271194      	90.90099       	93.714874      	96.44531       	96.26136       	107.76116      	124.044075     	118.99613      	115.419716     	115.39467      	113.52448      	112.65962      	110.929825     	108.11522      	108.55732      	108.18852      	106.60046      	108.11415      	106.53418      	103.68434      	105.84112      	105.81843      	102.81726      	104.19421      	103.75975      	103.6216       	102.61693      	102.14087      	101.192856     	100.149734     	99.41094       	98.72006       	99.81406       	98.934586      	97.02607       	97.317345      	97.53447       	98.60468       	98.432915      	96.73766       	96.50011       	97.162704      	97.94685       	96.680664      	96.23968       	97.258705      	96.61333       	96.76427       	95.05526       	94.508064      	96.09217       	96.73892       	94.50773       	94.351845      	96.19125       	95.94505       	94.84002       	95.04444       	95.171616      	93.8143        	93.26153       	94.79972       	94.12196       	92.11363       	94.155464      	94.790565      	92.74879       	93.56004       	94.9526        	95.3776        	94.0391        	92.29044       	95.16943       	94.86822       	92.23638       	92.617035      	93.006805      	93.61329       	93.432846      	93.7079        	93.85527       	92.69308       	92.73034       	93.49004       	92.245224      	91.17835       	91.96423       	93.76402       	93.04986       	91.55622       	92.01158       	94.80506       	93.28209       	
84.803604      	84.0813        	85.51005       	87.33374       	90.439804      	91.659454      	90.632515      	96.73736       	104.18464      	101.09913      	102.61513      	105.307846     	111.73071      	116.02846      	113.765274     	110.56792      	107.756195     	108.606026     	104.7267       	104.31139      	105.1434       	103.26907      	103.9543       	104.86193      	103.0869       	102.31477      	101.39533      	100.14477      	103.00894      	100.80235      	98.509995      	101.123985     	100.94674      	97.83676       	99.47681       	101.817276     	98.969284      	96.82905       	98.71129       	98.929985      	96.45789       	94.71749       	95.08199       	96.719894      	93.61243       	94.921745      	98.05045       	94.481415      	91.673386      	97.51258       	99.50917       	94.27082       	93.96516       	96.67908       	96.64655       	93.775566      	94.55345       	96.717804      	93.66164       	92.63039       	95.07345       	95.21679       	92.00349       	91.25965       	94.37117       	94.51598       	92.44901       	93.02759       	95.369576      	93.84584       	90.87415       	92.576706      	95.164764      	93.47884       	91.52722       	93.18277       	94.46064       	92.70653       	92.234215      	95.35348       	95.0885        	92.07602       	93.55985       	95.37807       	94.24962       	92.378815      	93.722015      	93.88329       	90.793976      	92.23845       	95.020836      	93.91191       	91.97387       	93.65882       	94.49792       	93.478035      	93.63377       	94.838715      	94.24046       	90.69116       	
88.04435       	86.36945       	86.49382       	88.5862        	93.23064       	95.45808       	95.536415      	99.05299       	107.09965      	111.81761      	113.41164      	113.97212      	109.86454      	107.109055     	105.241486     	102.81435      	101.73785      	104.13569      	103.66057      	99.85538       	101.2325       	101.56208      	100.48298      	100.49293      	99.688354      	100.18825      	99.86654       	98.7294        	98.36762       	98.8837        	97.97407       	96.72468       	98.797905      	98.447876      	94.69152       	96.08867       	99.25926       	95.90628       	94.10359       	97.1299        	96.81424       	92.94653       	93.52851       	93.30692       	94.6071        	94.25614       	93.23291       	96.58997       	97.44633       	91.88746       	95.58623       	96.160995      	92.46403       	95.888985      	96.39893       	92.96856       	93.31717       	95.14485       	93.931274      	94.774284      	94.290924      	93.051865      	95.66505       	95.583         	91.999146      	93.32697       	91.85526       	91.045456      	94.44178       	93.69849       	90.67027       	93.50313       	95.265915      	92.21753       	92.33644       	92.556526      	92.46611       	95.041275      	93.56757       	91.942         	93.71334       	94.65695       	91.87244       	92.37648       	94.31754       	92.198494      	92.936554      	94.36922       	94.30805       	91.970024      	93.25915       	95.05716       	94.10661       	93.54273       	92.375824      	94.19876       	95.03047       	93.845055      	93.56767       	94.727425      	
92.028564      	94.077934      	93.91053       	96.47314       	98.056404      	99.07658       	103.36669      	111.34016      	105.25448      	104.85622      	105.25682      	104.48536      	102.34637      	101.08292      	102.079765     	101.17563      	98.236694      	99.819695      	100.96447      	97.77155       	97.40785       	97.881836      	96.52015       	96.09639       	96.44305       	96.03248       	92.21737       	95.38612       	97.414986      	95.65467       	93.8192        	94.44751       	98.23066       	97.42078       	93.95705       	97.43431       	99.2093        	93.833244      	93.939735      	99.18177       	94.96374       	91.16065       	95.69296       	97.895645      	92.78911       	93.396614      	95.90154       	95.98356       	93.48333       	93.96547       	96.596596      	96.60217       	92.17079       	93.34407       	96.525665      	92.510025      	89.87407       	95.43781       	94.12344       	89.269035      	93.10723       	96.454765      	92.63539       	91.57532       	93.85717       	94.203384      	92.43896       	91.66553       	93.031166      	96.816025      	91.7762        	90.33931       	96.64212       	93.06974       	90.54732       	94.85749       	96.14009       	92.141846      	94.036026      	96.890495      	95.549576      	93.42738       	92.30716       	93.86992       	97.0044        	92.05204       	92.339615      	98.73136       	95.33711       	92.0157        	96.64841       	95.98335       	92.471275      	93.52105       	95.23549       	94.80033       	93.393036      	93.010345      	96.325485      	96.23149       	
98.01228       	100.3545       	100.65038      	102.341446     	103.85222      	103.67248      	103.705284     	98.92559       	97.989044      	99.470215      	96.88146       	96.93421       	97.91566       	95.894356      	95.713554      	95.54977       	94.14127       	94.21076       	94.22503       	93.849976      	95.85932       	94.89562       	92.30738       	93.79894       	96.61364       	94.246994      	94.19697       	94.92114       	94.599884      	95.21333       	94.58029       	93.34699       	95.52569       	96.555504      	94.71977       	95.48109       	95.43446       	93.33546       	93.89672       	92.153435      	91.26916       	92.9735        	92.40903       	91.61983       	93.28748       	94.56368       	94.46392       	95.58969       	94.24405       	92.67013       	94.70492       	95.241295      	93.70058       	94.92534       	94.085655      	91.80005       	94.751205      	96.237724      	93.287834      	92.21227       	94.1668        	94.70496       	95.33509       	93.24638       	92.70824       	93.993576      	92.47188       	90.76017       	91.54898       	92.01679       	91.98123       	93.494156      	93.39941       	93.959         	92.55795       	91.2111        	92.914635      	94.04961       	93.75408       	94.63783       	94.09368       	93.79928       	92.28484       	93.34916       	93.60887       	90.41562       	89.51519       	91.51865       	94.38223       	95.17235       	93.50664       	93.34437       	94.59869       	94.30485       	91.026215      	91.943275      	92.42404       	91.12208       	93.20474       	95.59069       	
94.22414       	93.04943       	92.76617       	93.27691       	94.212685      	94.17469       	95.04518       	94.19222       	94.93193       	95.94596       	92.71398       	93.26889       	94.46358       	95.21352       	93.02398       	92.48898       	95.21553       	94.57287       	90.884384      	91.51521       	96.37985       	94.36647       	91.65495       	93.72895       	94.826256      	93.40907       	92.13675       	94.27284       	95.91497       	89.81325       	89.0584        	95.41459       	93.66215       	90.94595       	91.957756      	92.58605       	90.63799       	90.137886      	92.52231       	92.702484      	90.32979       	89.31046       	92.293655      	90.7798        	88.66552       	90.72754       	91.24908       	91.32549       	89.67343       	90.21882       	92.46671       	91.816444      	91.155106      	91.67712       	92.05529       	91.57267       	91.99922       	90.63699       	90.96658       	90.52051       	91.64589       	93.00378       	90.98243       	89.85796       	93.49149       	93.43973       	91.42825       	90.82758       	92.65782       	92.58094       	89.74373       	90.013664      	91.20302       	91.31417       	91.51692       	89.9157        	91.43505       	94.180084      	92.254326      	92.99419       	94.63634       	93.01683       	92.086334      	93.89886       	94.07757       	93.274254      	95.611         	95.56677       	92.57098       	94.24539       	95.69272       	94.55061       	93.415825      	93.279205      	93.95468       	95.70969       	93.42892       	93.589714      	95.25647       	95.22233       	
93.60666       	92.8706        	92.00244       	91.8347        	95.30693       	96.15059       	94.23837       	93.8455        	93.8059        	94.85137       	91.34669       	92.8319        	97.37337       	94.902916      	92.56929       	94.926186      	94.57903       	92.61417       	91.72505       	92.11312       	94.01346       	90.581985      	90.24848       	93.71582       	92.94188       	90.00909       	92.927055      	97.11833       	92.76964       	91.05512       	94.09077       	93.78276       	90.614586      	90.94854       	93.78581       	94.19947       	89.68643       	89.42585       	93.13565       	92.399994      	89.38451       	91.90747       	91.83081       	89.27319       	89.95309       	93.850266      	90.89709       	85.9684        	89.33653       	97.89339       	100.69868      	92.96289       	92.47325       	95.49671       	92.694786      	91.39456       	92.712326      	92.199165      	90.08609       	92.76907       	94.471664      	91.2391        	91.83173       	92.033844      	92.3716        	90.72419       	91.587906      	92.8227        	93.126335      	91.450455      	91.63294       	93.82455       	92.44955       	90.91776       	91.60564       	92.78492       	92.52504       	91.85957       	92.87188       	91.447495      	89.93902       	92.53405       	93.99437       	92.69654       	90.8316        	93.50497       	93.73185       	90.72301       	90.93275       	93.18979       	90.74448       	89.21114       	88.325424      	89.27215       	94.02916       	93.31676       	90.58576       	91.77562       	92.92412       	91.98848       	
91.15735       	93.24245       	96.120926      	95.98953       	92.78027       	92.54915       	96.07246       	95.73689       	92.622116      	92.866905      	94.282455      	94.177536      	93.72049       	94.78118       	93.90255       	92.32801       	95.6943        	96.25025       	94.46318       	93.12675       	93.58761       	93.328316      	91.705284      	91.50185       	94.05061       	94.23231       	92.87045       	94.499985      	95.63183       	92.78236       	92.77295       	94.48664       	93.42269       	92.240974      	91.814835      	93.42231       	94.80759       	93.128265      	92.750206      	94.92937       	92.52542       	92.085785      	93.72476       	93.67317       	92.14134       	90.986946      	93.205414      	95.94505       	87.08952       	89.04977       	94.79796       	93.32016       	93.1224        	93.17818       	92.40716       	93.333534      	93.94325       	94.28033       	92.83171       	93.03433       	95.29162       	95.42842       	93.23199       	92.976204      	94.93658       	94.60095       	92.245415      	93.41176       	93.72869       	94.042206      	93.00888       	93.07971       	93.82274       	93.556015      	92.721344      	93.83998       	92.65051       	91.99177       	94.70116       	94.36044       	92.60269       	92.87622       	93.35566       	92.87536       	92.596725      	91.79          	92.00818       	94.597374      	93.0844        	90.26766       	91.41364       	95.246735      	93.84685       	92.80457       	93.10762       	95.22318       	95.64395       	91.01303       	91.92089       	96.75183       	
95.4769        	94.43579       	94.59534       	94.60947       	96.28922       	96.25021       	95.816315      	96.807076      	95.06132       	94.259224      	93.14449       	93.18198       	94.91615       	95.766815      	93.47876       	93.60275       	95.53034       	94.90498       	93.91729       	95.41487       	95.01306       	94.237045      	94.31644       	94.25009       	94.316376      	93.502884      	92.23941       	91.86594       	94.96473       	95.953445      	93.45131       	94.06426       	94.112045      	92.8573        	93.61594       	94.56402       	93.68681       	93.11923       	93.89069       	94.88869       	93.46361       	91.20259       	91.412506      	93.00208       	91.917694      	90.30122       	92.58702       	93.502235      	90.404526      	88.177826      	92.03288       	92.234406      	91.51301       	92.14759       	93.51735       	92.36283       	92.96425       	91.69665       	92.36185       	92.82991       	92.144615      	93.00491       	92.72027       	90.96225       	92.67931       	94.08514       	92.5236        	90.80494       	93.25554       	94.552704      	91.994804      	91.73402       	92.47702       	92.92435       	92.51252       	92.94315       	91.5981        	94.36775       	93.49121       	92.72144       	94.32092       	91.17835       	91.89828       	96.59978       	95.68114       	93.207596      	94.209595      	97.21524       	94.2137        	92.4233        	95.63024       	96.36388       	91.91031       	92.169754      	95.132774      	93.4135        	89.62397       	94.529175      	95.311714      	90.256355      	
94.30048       	89.87533       	90.463425      	94.93412       	98.37282       	96.22861       	92.592476      	94.738396      	96.22513       	94.235756      	94.302765      	92.69491       	91.77017       	93.42896       	93.744865      	94.70109       	93.67314       	92.58666       	94.80113       	95.936874      	93.789566      	93.05279       	96.74863       	95.09656       	93.08354       	93.00993       	95.790146      	93.92811       	92.07711       	93.21073       	93.627304      	94.827705      	92.00607       	90.47502       	94.43979       	95.8815        	91.39936       	92.53151       	96.49665       	91.61703       	90.09374       	94.23491       	92.59898       	91.08952       	92.46497       	92.679115      	93.405136      	94.088394      	91.98338       	93.99863       	94.893585      	90.62524       	92.47816       	94.63531       	90.34163       	92.76558       	95.60617       	93.36522       	91.512344      	91.18824       	94.31882       	94.69798       	93.10896       	91.45394       	94.55496       	95.84041       	92.97541       	93.139984      	95.16051       	91.707115      	90.80029       	93.82484       	94.70069       	90.6457        	91.49545       	94.61073       	93.8877        	91.37782       	92.926605      	94.945885      	91.85534       	89.29741       	95.6016        	96.88534       	91.548515      	90.40886       	94.726845      	93.15331       	90.55151       	92.5763        	92.979256      	91.22792       	89.944016      	92.00504       	92.44614       	91.55362       	90.422134      	95.15789       	94.75732       	92.17786       	
93.09952       	94.55974       	96.11085       	96.772545      	95.16101       	96.443954      	95.41666       	93.933914      	92.94962       	93.03703       	92.8475        	93.18373       	93.087494      	95.4508        	94.728035      	94.342415      	92.583855      	93.83812       	94.01575       	91.39331       	91.55216       	95.001595      	94.264244      	91.87113       	92.24972       	91.98234       	92.14788       	91.3274        	90.85731       	91.31154       	91.80028       	91.6171        	91.90992       	91.65135       	93.67993       	92.6194        	92.11581       	93.67494       	93.15508       	93.2342        	92.39007       	93.994675      	92.988396      	91.33707       	91.42875       	92.64987       	93.787994      	92.56853       	91.05311       	92.8783        	92.092804      	90.98532       	92.823296      	92.84555       	92.237915      	93.96658       	98.03979       	94.13187       	91.40225       	93.324844      	94.75427       	92.06023       	90.49289       	93.03244       	93.74323       	92.65396       	92.03492       	93.8874        	93.44268       	93.27442       	91.589516      	91.400024      	91.96664       	92.41595       	92.118515      	92.26508       	92.96025       	93.974976      	93.04054       	93.62749       	94.0053        	92.58804       	92.93757       	94.62486       	93.52478       	93.42018       	94.37939       	95.16764       	95.50838       	92.2883        	93.22521       	94.090416      	93.00331       	92.42734       	94.45443       	93.153305      	92.91326       	94.722725      	92.39747       	94.651924      	
93.81352       	91.78618       	92.14197       	93.99089       	96.57893       	98.44377       	95.83095       	93.29296       	95.34863       	95.648346      	94.001114      	93.9272        	94.54992       	94.08299       	95.44673       	96.78101       	95.12855       	94.054596      	94.26933       	93.43506       	93.568855      	92.52315       	92.23469       	94.783005      	94.29481       	92.671036      	92.55502       	93.17561       	93.492935      	93.2871        	94.86777       	91.864426      	92.47095       	93.06367       	92.93216       	91.474945      	90.54621       	92.946236      	96.42779       	93.54218       	91.74059       	93.175415      	92.63192       	90.02033       	91.68476       	93.67932       	92.24942       	91.28939       	93.74832       	93.79487       	90.617836      	91.2409        	94.263016      	93.751595      	90.325386      	91.7004        	95.475136      	94.7247        	91.0231        	93.64331       	94.74003       	91.8555        	91.99085       	93.65982       	92.85822       	90.948814      	91.660965      	93.36099       	92.534706      	91.23813       	93.23597       	93.64795       	90.07518       	90.297035      	94.887665      	93.38878       	89.48943       	91.34611       	96.554214      	94.59403       	90.81693       	92.21563       	93.30945       	91.2668        	89.16823       	92.82386       	93.07622       	88.08622       	91.311844      	95.800934      	92.27447       	89.55859       	92.81336       	96.36496       	91.445404      	89.8804        	94.30557       	96.45837       	91.15079       	91.95395       	
92.48426       	92.24269       	93.40113       	95.02372       	94.61192       	93.21073       	93.41417       	95.37027       	94.44805       	94.252495      	94.14421       	93.37436       	93.2601        	92.5557        	93.08288       	95.99443       	94.50844       	92.97779       	93.193         	93.67607       	94.10742       	94.007904      	95.22106       	94.90589       	94.264496      	95.690636      	95.8927        	92.65756       	92.25028       	95.10562       	94.3513        	92.65724       	91.40641       	93.231606      	93.84583       	92.797035      	93.470566      	94.73402       	94.99292       	93.037025      	94.868706      	94.05538       	93.01753       	90.842545      	91.82228       	91.934814      	92.99773       	92.38055       	93.069016      	93.08267       	93.963425      	93.018295      	93.33257       	93.40242       	90.936806      	92.715454      	95.00099       	93.39474       	94.01623       	93.768234      	93.76916       	94.63847       	94.07903       	94.93278       	94.5695        	91.23565       	91.75921       	94.483696      	95.37627       	90.38916       	94.967415      	95.35582       	90.26136       	85.723305      	82.11861       	80.06116       	84.28429       	85.910446      	89.52412       	103.664116     	101.58289      	96.916         	96.8873        	94.234406      	93.47446       	95.61132       	94.43704       	93.9381        	93.254265      	94.40548       	93.284775      	95.86121       	92.61353       	91.24478       	93.72069       	94.33496       	91.766         	93.96448       	95.65248       	93.582466      	
91.738205      	92.29278       	93.72188       	94.29909       	93.54033       	94.189545      	93.760086      	92.64405       	93.53075       	92.03121       	91.531845      	93.592896      	92.902176      	91.35355       	92.26693       	93.85453       	93.30179       	91.89548       	95.97533       	93.42836       	93.660805      	91.446495      	92.40036       	93.06547       	90.73467       	89.59          	93.69584       	95.08708       	91.59985       	92.947235      	92.86716       	92.52904       	92.65214       	92.48744       	91.82742       	92.62902       	91.48569       	94.12691       	95.38559       	92.28266       	92.53535       	94.913284      	94.77209       	91.520546      	92.36077       	92.52785       	92.58361       	94.37586       	92.65889       	92.833336      	93.97172       	93.73359       	94.81583       	93.5828        	88.09615       	94.90815       	95.82879       	91.65465       	91.76855       	95.07985       	94.8426        	91.05024       	90.93139       	96.13329       	94.9205        	91.278534      	93.99413       	97.0899        	85.575226      	79.10005       	82.013336      	76.233086      	68.29659       	69.52758       	70.96536       	66.50652       	63.14542       	69.28045       	82.96644       	100.7191       	103.18361      	103.06926      	105.06916      	101.5822       	99.07924       	102.12514      	102.5656       	99.71317       	99.42114       	100.87927      	99.02254       	96.44288       	98.167885      	97.25023       	95.06388       	96.03735       	100.44245      	99.0219        	95.52473       	99.725914      	
93.59204       	91.261635      	91.87894       	94.16199       	98.039604      	96.208046      	91.68038       	92.74161       	94.54532       	92.205765      	92.13827       	94.68145       	93.351685      	90.77543       	92.750694      	94.57836       	94.843956      	91.50902       	93.62367       	95.14112       	93.16846       	91.00496       	92.9142        	94.72427       	92.62452       	91.30592       	92.80791       	93.642334      	92.54253       	92.679146      	93.331215      	93.18421       	94.08292       	93.881226      	95.154495      	92.93918       	92.765335      	96.68372       	95.69078       	94.64273       	93.33037       	94.30334       	94.23804       	92.64991       	92.74162       	94.244064      	92.763306      	93.24179       	93.79293       	94.45147       	92.7696        	91.71546       	93.674355      	93.48861       	94.332726      	93.60685       	95.251205      	91.39324       	91.88143       	96.99641       	95.19211       	92.6826        	92.88099       	94.52751       	94.76523       	86.464554      	76.60442       	72.06871       	69.96132       	66.11431       	68.43297       	67.017525      	63.981815      	65.33449       	68.6466        	67.82153       	67.39962       	71.47339       	79.1472        	96.90197       	111.919685     	106.75194      	106.42667      	106.26684      	102.44473      	102.329155     	103.17103      	104.470566     	102.13549      	101.363144     	98.40263       	99.35005       	103.021866     	100.990074     	96.80672       	98.12249       	100.84685      	100.5336       	96.17195       	98.98251       	
92.84156       	92.560295      	94.986664      	94.90868       	93.43466       	94.12764       	92.49985       	92.39052       	94.14803       	94.47051       	91.922806      	90.892075      	93.819786      	96.1234        	93.87458       	94.17522       	95.70967       	95.25494       	92.67908       	92.96215       	94.75624       	95.04113       	93.04402       	91.720406      	96.10867       	94.62296       	89.09311       	93.170784      	94.8833        	90.53454       	90.118935      	92.98908       	94.85466       	91.60718       	89.94522       	94.81902       	96.19302       	91.55538       	91.584404      	95.96715       	96.12621       	91.11705       	93.88539       	92.83032       	91.55286       	90.56816       	94.136         	95.15056       	93.92736       	91.84699       	95.68019       	93.103325      	90.993484      	92.496056      	94.998405      	93.57464       	91.42505       	95.92414       	100.08656      	92.65534       	88.27715       	81.361534      	78.38958       	73.820404      	69.38309       	68.06199       	67.25331       	65.49279       	66.92949       	68.16205       	69.534004      	67.90163       	69.89271       	72.27251       	69.67231       	69.91392       	72.08306       	75.23554       	83.77062       	96.94892       	113.751175     	115.724846     	111.411        	111.35572      	107.87455      	107.48598      	107.08202      	106.47028      	106.416016     	104.54982      	103.748085     	103.08529      	102.323494     	101.19825      	101.864914     	100.633865     	97.82392       	100.84753      	102.210884     	101.828384     	
92.120125      	92.374664      	92.624374      	95.157455      	96.9236        	96.788         	97.62322       	95.877045      	94.21321       	95.90667       	97.166         	94.300446      	94.65994       	93.18969       	92.897         	95.73145       	95.41108       	95.470566      	95.075165      	92.882965      	92.38697       	92.18089       	93.33644       	91.391106      	91.605255      	92.6353        	92.20024       	92.94151       	94.18089       	90.96044       	93.29127       	90.72745       	92.112335      	93.11407       	94.201324      	92.85851       	94.4535        	92.744514      	89.75578       	93.40407       	94.97891       	93.87088       	94.962555      	95.93572       	92.70179       	93.95463       	92.222374      	91.54088       	92.289375      	94.376305      	93.22106       	93.06493       	96.78177       	94.560715      	94.47474       	93.09714       	84.29404       	77.54833       	70.38054       	69.08322       	68.70369       	67.22909       	67.62226       	70.34075       	67.1068        	67.5114        	71.34224       	70.43455       	71.00481       	71.33247       	72.58516       	74.00673       	75.711624      	76.58718       	77.477394      	75.12558       	76.75235       	77.11348       	81.51966       	89.32747       	107.735916     	119.318634     	114.55838      	112.92303      	110.66049      	110.93002      	108.62931      	109.15982      	107.31674      	104.90267      	104.982056     	104.7041       	102.364265     	103.21418      	105.96396      	105.52646      	101.25322      	100.31025      	99.82155       	101.23453      	
90.88211       	89.95711       	93.54325       	97.72493       	96.709755      	93.58141       	93.61282       	96.829216      	95.988884      	92.538704      	93.25125       	96.33476       	94.791275      	92.47826       	93.97438       	97.71418       	96.439125      	91.06422       	96.21355       	99.929794      	92.56356       	93.110855      	95.622475      	95.665535      	93.36231       	94.742134      	95.459435      	92.35095       	91.404         	93.04822       	93.956         	92.18464       	92.10278       	95.302444      	94.94843       	90.88302       	91.60367       	95.14411       	93.96443       	91.0797        	95.78418       	94.5405        	90.364975      	98.38527       	94.71628       	96.84262       	92.95462       	94.40449       	95.88245       	92.916046      	92.14654       	97.22929       	92.893486      	77.311966      	68.13023       	71.3767        	70.50597       	65.3988        	65.28286       	67.62298       	66.17685       	67.81531       	70.6678        	74.298134      	71.26323       	72.49696       	74.01876       	75.22761       	72.826065      	76.06477       	79.72636       	78.3805        	76.7576        	79.1071        	80.76318       	79.14534       	77.503494      	78.85208       	84.84847       	92.139084      	101.532524     	117.79739      	111.05466      	111.13954      	114.174164     	111.997574     	107.76324      	107.864204     	106.85844      	106.486946     	105.60489      	105.4406       	105.31512      	102.46615      	100.10058      	105.06442      	107.40991      	104.233925     	101.714676     	100.58775      	
91.57914       	93.55941       	94.94764       	95.32596       	94.44968       	94.25949       	95.33583       	96.46764       	95.83214       	96.19911       	97.48915       	98.46921       	93.9043        	95.04606       	98.023895      	95.0147        	91.77685       	97.134514      	96.89102       	93.04682       	93.35821       	95.489         	92.07467       	92.37375       	96.34542       	101.44091      	101.86846      	95.50562       	95.58988       	96.28251       	93.30155       	91.34869       	95.5869        	95.64423       	92.82445       	92.167496      	94.43175       	95.47983       	92.60348       	93.03012       	95.142296      	93.35188       	91.91373       	93.925385      	95.35361       	92.135895      	88.73796       	82.59945       	75.58128       	72.30547       	71.37959       	71.68989       	70.86528       	67.25157       	66.924065      	68.805275      	70.1417        	72.933685      	72.057335      	72.95939       	73.63065       	74.34387       	75.81673       	75.91439       	76.59627       	77.86018       	79.472984      	79.57332       	78.75218       	80.862595      	81.80148       	82.207535      	81.267426      	82.926796      	82.45595       	79.75937       	78.861275      	84.112724      	85.446014      	86.54871       	104.538        	111.92664      	119.590866     	111.27182      	112.807205     	114.04131      	108.780525     	108.45035      	110.86804      	110.69744      	109.27396      	107.02022      	108.284874     	108.038345     	105.7583       	109.09993      	113.58145      	104.80452      	105.887985     	105.52133      	
93.80452       	94.67811       	97.36675       	98.23476       	97.859856      	95.415985      	95.179695      	98.27916       	95.698235      	93.07747       	97.31006       	98.2406        	91.42785       	93.39692       	97.19386       	96.023605      	93.16003       	95.71618       	98.05944       	95.26375       	94.22405       	96.69125       	98.1241        	93.99401       	92.15323       	97.888054      	97.573135      	92.96179       	94.682686      	97.8263        	95.386444      	95.80737       	98.97586       	99.3217        	96.92479       	94.88258       	98.79501       	99.52586       	95.12062       	95.451035      	98.94337       	94.89551       	92.90594       	91.708374      	84.333694      	75.86286       	71.81385       	71.547         	67.13915       	67.729256      	68.29414       	70.013885      	73.98915       	72.38006       	71.249985      	73.9782        	74.900665      	74.000694      	77.837456      	78.70074       	78.42261       	81.94351       	83.054535      	79.921265      	80.802605      	84.10084       	84.97366       	82.53472       	83.70715       	85.8252        	85.433235      	85.21261       	86.56117       	86.56358       	90.52463       	90.145706      	88.15425       	84.787926      	85.99415       	90.614555      	101.94418      	116.321465     	127.12098      	122.222786     	119.399506     	116.23701      	113.523315     	116.41364      	111.9711       	109.40258      	110.20203      	111.18206      	110.90538      	111.436005     	110.42322      	106.30842      	105.793144     	103.754105     	103.48011      	105.57662      	
93.03097       	94.4471        	95.27542       	96.06995       	96.06912       	97.31071       	94.307076      	93.73197       	99.12155       	97.33125       	92.852776      	95.24906       	95.814255      	93.57089       	95.70182       	97.17986       	96.75945       	97.20839       	94.938446      	95.38046       	97.170815      	94.078156      	93.802605      	96.32589       	94.69713       	92.70215       	95.53491       	95.94781       	93.49053       	91.99529       	95.41649       	95.596596      	95.72689       	95.729454      	93.44238       	95.360306      	93.41717       	93.006836      	96.104774      	94.66843       	93.61445       	94.45593       	89.2892        	70.69687       	63.83919       	63.099453      	62.533546      	64.04898       	66.40079       	67.82254       	69.1544        	66.15294       	69.81069       	72.983284      	71.40196       	72.79739       	76.21237       	77.6104        	75.34458       	78.58071       	79.77306       	79.35384       	79.82069       	80.08774       	82.05763       	81.89929       	80.874985      	83.62321       	82.80062       	84.03371       	89.19576       	86.036415      	85.73689       	84.53072       	87.04628       	87.79517       	80.65499       	84.25469       	85.24661       	88.58813       	98.517944      	115.94604      	126.52222      	119.69219      	118.10967      	115.155426     	114.58668      	114.853745     	110.90105      	111.028076     	111.82563      	108.29029      	108.50129      	108.27402      	104.5083       	102.20708      	107.15023      	109.69149      	104.36466      	104.619255     	
97.718796      	98.171715      	99.06088       	99.69341       	99.917465      	98.673546      	99.7356        	98.70036       	96.01765       	97.597885      	98.878716      	95.540085      	94.5437        	101.85682      	101.39925      	97.89169       	100.29274      	100.61434      	97.910934      	98.77165       	103.53621      	99.88968       	101.073906     	105.0956       	103.92512      	99.87746       	95.22208       	96.861465      	99.5346        	94.65709       	93.53649       	99.08939       	99.977425      	96.543495      	93.39194       	96.11415       	98.336624      	94.41321       	94.98234       	97.759315      	97.45601       	89.773834      	77.87657       	70.98668       	64.120026      	63.469597      	65.67666       	66.98657       	67.83051       	71.73213       	74.82866       	75.58439       	73.30159       	76.715645      	79.46211       	76.870865      	78.22961       	80.402824      	84.633514      	81.21174       	88.660225      	89.17375       	85.79887       	85.198494      	85.126274      	86.73368       	85.801056      	85.33829       	88.35704       	86.56474       	82.147095      	88.17133       	85.04895       	86.83107       	89.11328       	85.67615       	87.225586      	87.625984      	86.22383       	89.60856       	100.13515      	114.79017      	126.854904     	123.60933      	118.05712      	114.58066      	115.77192      	115.935005     	114.30937      	112.39221      	109.870895     	109.95539      	109.064224     	106.53648      	107.512695     	109.49263      	107.65072      	106.16287      	104.16924      	105.98424      	
94.57602       	94.412315      	94.85975       	97.3291        	98.94058       	98.71235       	97.526596      	98.19031       	98.33891       	97.88098       	96.58158       	96.29346       	94.164925      	95.37511       	97.65905       	100.331245     	96.8289        	96.85254       	95.621635      	96.56318       	96.63539       	90.95568       	94.62257       	95.77421       	93.33801       	94.24602       	94.911545      	93.538155      	94.50081       	93.92268       	92.5387        	92.492195      	96.6733        	93.45907       	92.42903       	90.76664       	91.87442       	92.36525       	92.90336       	90.91704       	93.84444       	88.807175      	74.32794       	69.02172       	65.57287       	62.911198      	63.84107       	65.33147       	65.53279       	71.88484       	71.45002       	70.75957       	72.424286      	78.624115      	76.38663       	74.12354       	74.10351       	75.326675      	78.60125       	81.1895        	80.15292       	79.566376      	81.67815       	81.00434       	80.40202       	82.70072       	82.51623       	86.726494      	84.50923       	82.60969       	85.064095      	83.00691       	83.484055      	86.09208       	85.058464      	83.467735      	84.711136      	85.82995       	82.29635       	83.32251       	88.62004       	105.9371       	123.58176      	118.20782      	117.08412      	114.909515     	113.20948      	114.29473      	111.30681      	109.279526     	109.491264     	108.81326      	107.25258      	106.83215      	104.7009       	104.85127      	103.42197      	104.96907      	106.18859      	103.5113       	
96.010414      	97.18864       	97.08421       	96.05563       	95.875565      	98.895996      	98.84069       	95.97716       	96.92087       	97.03865       	97.968254      	96.59559       	93.42679       	94.975296      	96.88321       	97.55859       	96.2733        	97.18082       	100.04015      	95.579834      	95.75892       	95.64375       	98.61304       	92.86515       	94.04716       	95.476555      	95.5048        	92.54918       	93.378         	95.91511       	93.27465       	92.4581        	94.84187       	97.8437        	95.26986       	93.800545      	94.82254       	93.35332       	92.64721       	93.49822       	96.42182       	92.797066      	77.624664      	74.78926       	69.86929       	62.548904      	64.9685        	69.282974      	66.59405       	67.374115      	74.77546       	74.05421       	71.92465       	73.29195       	76.29796       	77.704254      	75.10914       	75.9888        	76.11955       	77.60577       	82.68403       	85.38916       	83.61574       	81.02084       	82.39302       	86.17261       	84.34363       	83.53702       	85.50565       	88.1124        	83.47982       	83.69223       	87.05567       	86.08265       	85.51724       	84.21911       	86.10863       	85.97785       	79.99207       	82.74759       	90.08121       	105.75342      	118.512344     	119.83923      	117.35341      	118.6694       	116.74608      	115.07999      	112.49367      	112.10936      	111.674286     	113.57779      	107.34294      	108.78075      	109.174286     	105.74938      	104.97225      	105.0837       	107.2014       	103.42854      	
97.26401       	95.593094      	96.39042       	99.98107       	98.5881        	97.586174      	98.11614       	98.598335      	97.65109       	97.25024       	97.6017        	96.939415      	95.99914       	95.390816      	95.854034      	97.15608       	96.74727       	95.02359       	97.48138       	98.23436       	94.34447       	94.49881       	98.14643       	96.25904       	95.52752       	95.14404       	95.87199       	95.9613        	94.87667       	93.144485      	94.1659        	94.633095      	96.57783       	100.028336     	96.70971       	96.669525      	100.77514      	96.152756      	95.38433       	95.42813       	97.42943       	97.80185       	88.81886       	76.03641       	70.463524      	67.71703       	68.14609       	69.000565      	73.427246      	73.227234      	72.67735       	73.13744       	74.121994      	74.57817       	76.713066      	77.08902       	76.32582       	81.02143       	83.528404      	80.65589       	80.124985      	83.37619       	86.41814       	85.40988       	85.54011       	83.870735      	83.81684       	84.5212        	83.73847       	87.456635      	87.15838       	92.321396      	91.56556       	88.95323       	86.41895       	87.66397       	87.41686       	85.61999       	84.02401       	86.018394      	90.39205       	96.05916       	113.78201      	127.58892      	121.57999      	115.472664     	116.02922      	115.92668      	111.90003      	110.49195      	112.64554      	111.2247       	108.31095      	106.24008      	107.168686     	107.144005     	107.85869      	107.14244      	108.37422      	105.56902      	
95.634186      	94.13063       	94.82652       	96.21599       	96.7924        	95.69655       	94.41003       	94.15014       	95.57884       	96.030365      	94.93543       	96.89383       	95.67667       	94.80494       	96.70621       	97.81053       	96.61919       	98.02264       	98.725334      	97.445244      	98.81679       	96.88712       	96.76624       	96.472374      	96.59286       	95.24483       	95.24107       	93.16442       	94.319595      	96.89803       	93.78614       	95.13272       	98.83525       	94.24463       	94.54501       	95.41408       	96.03137       	94.86418       	94.91712       	93.72106       	97.121735      	94.61678       	89.05354       	78.41222       	73.19274       	66.81885       	68.139626      	71.49838       	68.40467       	69.61174       	71.1996        	71.59915       	72.59532       	74.15408       	74.158646      	75.64583       	76.13029       	77.06187       	79.79306       	81.73333       	80.47315       	85.13111       	82.62098       	82.6539        	84.517914      	84.77287       	82.82591       	83.68672       	84.9778        	84.50484       	86.76756       	91.011505      	86.80315       	84.873886      	87.19959       	88.79843       	87.624214      	83.33882       	82.20314       	84.430824      	88.06483       	94.3256        	108.61315      	124.26678      	119.08267      	115.997154     	118.752335     	117.76159      	113.50246      	111.86266      	111.93953      	109.44374      	107.096565     	109.41106      	109.54448      	105.177505     	101.47802      	106.88866      	105.74386      	102.74669      	
