# www.neaspec.com
# Scan:	 	AFM
# Project:	 	20251007_PS
# Description:	 	
# Date:	 	10/07/2025 13:24:33
# Scanner Center Position (X, Y):	[µm]	49.99	50.01	 
# Rotation:	[°]	0	 	 
# Scan Area (X, Y, Z):	[µm]	5.000	5.000	0.000
# Pixel Area (X, Y, Z):	[px]	100	100	1
# Averaging:	 	1	 	 
# Integration time:	[ms]	5	 	 
# Laser Source:	 	4.5-15 µm nano-FTIR laser
# Detector:	 	R
# Target Wavelength:	[µm]	7.502	 	 
# Demodulation Mode:	 	Fourier
# Tip Frequency:	[Hz]	241,340.500	 	 
# Tip Amplitude:	[mV]	45.700	 	 
# Tapping Amplitude:	[nm]	76.314	 	 
# Modulation Frequency:	[Hz]	0.000	 	 
# Modulation Amplitude:	[mV]	0.000	 	 
# Modulation Offset:	[mV]	0.000	 	 
# Setpoint:	[%]	79.75	 	 
# Regulator (P, I, D):	 	4.206850	8.625812	1.000000
# Tip Potential:	[mV]	0.000	 	 
# M1A Scaling:	[nm/V]	0.426	 	 
# M1A Cantilever Factor:	 	1,000	 	 
# Q-Factor:	 	487.4	 	 
# Version:	 	2.1.11536.0
112.68961      	116.89421      	117.82152      	117.100845     	118.57536      	121.84204      	123.595345     	123.72401      	95.5972        	84.10236       	83.79749       	81.9628        	83.37703       	85.47264       	82.849495      	82.852776      	84.385574      	85.62326       	84.216515      	84.32945       	86.013916      	86.14654       	84.42692       	85.283325      	87.96216       	85.229294      	83.349236      	85.8049        	88.92442       	86.036674      	81.67327       	84.754326      	87.20981       	83.40026       	82.22841       	84.11856       	82.15425       	79.82215       	79.735016      	82.747086      	80.38541       	77.90439       	82.34987       	83.68637       	78.449615      	76.275894      	80.36037       	79.34997       	69.1689        	67.89943       	72.62528       	69.39257       	62.495094      	63.839275      	73.66052       	82.92935       	91.19886       	96.09358       	97.29395       	93.87338       	94.40282       	96.42132       	94.5234        	91.962845      	94.20065       	96.01522       	93.12389       	92.93941       	97.05363       	96.925575      	92.723724      	94.82956       	96.854095      	94.97344       	91.24925       	92.08301       	94.94777       	93.35423       	92.22079       	93.55961       	92.74159       	94.03304       	93.6317        	94.149864      	95.99369       	93.76613       	94.50262       	97.257484      	95.31292       	95.26827       	98.04506       	97.46986       	96.759285      	97.07301       	98.09938       	96.83432       	96.98091       	97.2806        	96.44227       	95.41887       	
112.6965       	117.41319      	118.44089      	117.37243      	119.42382      	120.89649      	120.70814      	125.963005     	106.57237      	84.475586      	81.86268       	85.48682       	83.43588       	81.9039        	83.04176       	84.24292       	83.61271       	83.32524       	83.17772       	84.18771       	84.85851       	85.275986      	85.526596      	85.62939       	84.763275      	86.03725       	87.58034       	84.72224       	85.51622       	86.90187       	85.53929       	84.238785      	84.86938       	84.318306      	84.92265       	83.948135      	82.59572       	83.20412       	81.4786        	80.13824       	82.16713       	80.37325       	80.42294       	79.76994       	78.52788       	74.39605       	69.43581       	71.373955      	71.49376       	69.73775       	67.18043       	69.092155      	68.12675       	66.1879        	68.94344       	80.26285       	92.117874      	95.55032       	94.63745       	94.97717       	94.704414      	93.546036      	94.40866       	96.00509       	95.01102       	95.45497       	95.59451       	95.56127       	96.26965       	95.47156       	94.78102       	93.91191       	94.36974       	94.685135      	94.19746       	93.525635      	93.69848       	95.273926      	94.74032       	92.99193       	93.059296      	96.686905      	95.5341        	94.49045       	94.288666      	94.8557        	95.146736      	94.400116      	95.97716       	97.1455        	96.33869       	97.153206      	97.223564      	96.22826       	96.81021       	97.68131       	97.52668       	96.60235       	96.32748       	95.38417       	
112.50091      	117.98648      	115.23149      	115.31355      	121.83899      	122.637886     	120.83135      	126.43957      	109.99373      	85.2731        	81.409454      	84.62455       	84.91186       	82.68521       	81.62415       	84.940636      	85.10362       	81.84676       	84.89102       	89.22845       	84.11186       	82.957085      	87.36101       	87.621414      	85.87843       	85.59204       	86.17345       	87.21373       	86.59521       	84.18839       	85.31588       	84.87808       	81.87182       	83.64132       	85.08826       	79.613716      	79.93033       	82.250496      	79.84512       	77.08364       	77.18861       	77.89229       	77.12392       	74.31572       	74.58052       	78.33725       	73.58591       	71.97977       	76.78879       	75.59239       	70.4807        	70.75176       	75.18227       	74.638054      	77.22875       	86.86911       	97.47297       	94.43416       	93.62654       	97.978065      	97.12826       	93.13437       	94.74415       	97.67676       	94.92746       	91.80204       	94.56209       	95.21464       	95.6941        	95.65853       	95.09017       	94.574554      	94.38143       	94.538506      	94.43086       	93.90953       	93.135216      	95.01559       	94.25406       	92.783295      	93.38476       	95.54527       	94.51016       	94.15775       	94.563835      	94.45533       	94.53078       	95.80202       	94.28549       	94.46484       	97.134834      	98.55977       	97.78331       	96.48282       	97.362434      	97.71041       	97.34518       	96.40617       	96.65551       	96.207146      	
113.78454      	114.71982      	113.639244     	116.61142      	120.04916      	118.21122      	118.51622      	123.74869      	120.11281      	91.21556       	81.89328       	81.88323       	83.52414       	82.14672       	81.439735      	83.221695      	82.49533       	82.21017       	84.27968       	84.41511       	82.71497       	83.79427       	86.18603       	84.35941       	83.91761       	85.40534       	84.452965      	83.68185       	82.96154       	82.86425       	83.03521       	82.846146      	80.4684        	80.183266      	78.78313       	76.27309       	77.67984       	76.41287       	71.08139       	71.08967       	71.593704      	63.917747      	72.031425      	81.79017       	80.50843       	77.76958       	78.616         	79.95944       	80.382935      	76.51796       	78.870445      	82.728195      	81.75575       	77.82674       	84.05367       	96.92331       	94.99259       	93.56218       	96.929565      	96.00617       	94.446976      	96.254684      	95.15811       	97.20696       	95.64575       	91.79045       	96.7209        	96.83015       	91.206085      	95.499596      	98.52453       	93.12817       	92.02357       	96.65081       	93.6622        	91.65394       	95.23471       	96.02436       	95.042725      	92.19969       	90.71521       	93.82649       	93.62733       	91.66077       	93.80741       	94.87731       	92.333824      	94.109795      	96.56076       	92.55541       	94.81761       	97.38719       	94.2868        	95.47709       	97.13063       	96.23091       	96.64505       	97.33652       	97.16088       	97.23433       	
112.19237      	115.39733      	115.192474     	115.15515      	118.58891      	119.47497      	118.643036     	122.14554      	125.76661      	97.924         	82.036736      	81.27339       	82.43184       	82.18288       	80.6034        	80.91261       	81.90899       	82.12176       	80.60389       	81.73567       	84.23836       	83.3103        	80.20053       	83.64125       	83.66893       	81.17346       	82.09654       	82.06482       	80.75684       	79.99663       	79.51269       	78.89159       	77.80583       	75.31819       	75.79973       	77.915764      	72.881294      	69.00381       	71.99887       	72.17481       	70.33129       	70.50789       	72.44008       	75.990486      	78.29198       	79.920074      	83.23055       	89.15526       	86.651436      	83.64543       	84.1765        	88.597534      	95.377975      	97.60182       	97.47543       	94.02628       	95.022         	96.591965      	95.12835       	94.158745      	95.71901       	95.99755       	94.66967       	93.84555       	96.03502       	97.53444       	94.98413       	94.26093       	96.54894       	96.25267       	94.55472       	95.028496      	94.42821       	92.56587       	93.4454        	94.84594       	93.4781        	93.288         	94.84941       	94.19002       	93.41586       	93.20352       	94.54884       	94.231575      	94.96434       	94.793755      	93.79074       	95.95075       	97.10759       	95.783066      	93.186356      	95.352295      	97.92594       	96.2516        	93.89291       	95.59288       	98.59057       	98.64223       	97.31763       	96.23601       	
109.03008      	114.72999      	114.53289      	114.41584      	115.945465     	119.28511      	117.649734     	117.42939      	123.421684     	105.94969      	81.273026      	80.57038       	82.50182       	80.27609       	79.086266      	80.38648       	79.26659       	77.49942       	79.75591       	80.11837       	79.20275       	81.11681       	81.99283       	79.541145      	80.31632       	80.40755       	79.80249       	79.33153       	76.58367       	75.16458       	77.357475      	75.85609       	70.83454       	73.01295       	71.03352       	68.18698       	72.44603       	71.45871       	74.67675       	74.63879       	73.65796       	77.800186      	86.88069       	88.34375       	87.86762       	86.92135       	86.006516      	96.495895      	99.11356       	94.670006      	96.60649       	100.16578      	97.64723       	96.326584      	97.57849       	95.338936      	95.9911        	96.8464        	94.75464       	95.69474       	95.78664       	93.91015       	96.61629       	96.031456      	92.66762       	94.463326      	96.05627       	94.306244      	94.231964      	95.63334       	95.000534      	93.6347        	93.37717       	94.21017       	93.59196       	93.34984       	92.42194       	93.763214      	93.77763       	92.72767       	92.58265       	95.33232       	92.55676       	92.32368       	95.89832       	93.07012       	92.20906       	94.61327       	94.22816       	93.65047       	94.3914        	96.024574      	96.55432       	94.250595      	93.691444      	95.01203       	95.560715      	95.262054      	95.82286       	96.559456      	
111.99256      	110.63522      	113.86081      	114.40022      	113.70667      	113.59293      	116.68692      	119.98743      	120.61959      	112.45675      	85.31738       	79.74975       	77.14445       	76.88576       	77.157745      	76.75596       	77.09242       	78.7777        	77.13302       	75.18626       	77.57746       	77.59669       	75.39066       	74.88117       	75.68841       	74.67554       	72.119804      	71.70654       	72.238976      	71.3438        	67.89628       	67.8473        	70.88366       	71.05785       	77.84106       	82.30934       	77.49543       	72.562225      	86.00256       	85.69747       	83.634026      	89.816734      	95.32507       	96.41603       	96.11634       	96.90614       	98.528336      	99.692825      	95.394516      	96.171265      	100.71195      	96.62956       	94.15941       	97.23616       	98.01692       	95.18541       	93.920334      	96.115105      	96.25321       	94.42327       	94.05031       	96.059296      	95.59197       	92.631836      	93.75457       	96.59471       	94.09347       	93.71075       	97.66202       	97.741325      	91.58244       	95.4368        	99.1311        	94.72022       	91.634964      	93.97013       	93.69466       	93.74821       	92.93682       	92.52971       	93.59036       	92.43844       	91.73771       	95.66502       	94.45881       	91.724396      	94.44292       	96.06641       	93.06449       	93.28022       	95.79103       	95.309654      	94.83292       	95.27839       	95.143814      	95.543076      	95.78177       	94.601974      	92.749664      	93.64214       	
110.848595     	109.19621      	114.61837      	113.54192      	110.101006     	112.318344     	117.327446     	115.93791      	114.11357      	118.16804      	93.02823       	75.688065      	74.58233       	77.725136      	76.98867       	73.4877        	73.27562       	76.09991       	75.06131       	71.24953       	73.05541       	75.35472       	70.96944       	68.811195      	72.986404      	70.63782       	66.652374      	71.70976       	73.39751       	70.533966      	70.919586      	76.47709       	81.220856      	74.48151       	75.02206       	82.06761       	82.40788       	84.80819       	93.90893       	97.4593        	96.53238       	96.038895      	96.30013       	96.1735        	97.28344       	97.98222       	96.28317       	96.93981       	96.72543       	96.0868        	97.14034       	96.45309       	95.06916       	95.01873       	96.834724      	95.34736       	93.95903       	95.59868       	96.42107       	95.64363       	95.32154       	95.17342       	95.27196       	93.887085      	93.87298       	95.37599       	96.00011       	95.62057       	94.45523       	95.341034      	96.098404      	95.59806       	95.4093        	93.369316      	93.56063       	94.54887       	94.72997       	93.3225        	93.24399       	92.97196       	94.92285       	95.09119       	94.733406      	93.93922       	93.99224       	94.17872       	93.051254      	92.83765       	95.36377       	94.98449       	91.754524      	93.58472       	96.28963       	93.990555      	93.34655       	94.90857       	95.7552        	95.746826      	95.56307       	95.514595      	
107.78505      	106.47264      	110.26071      	109.97194      	109.201584     	110.91933      	113.64901      	114.18327      	113.8499       	114.31629      	88.70621       	74.26859       	72.509476      	74.084435      	71.73875       	69.006546      	71.84981       	71.64193       	67.207794      	67.50023       	70.14949       	68.65707       	65.73185       	68.352776      	70.01743       	73.797104      	70.801155      	69.6484        	75.169815      	82.78165       	84.88886       	83.52129       	83.437546      	84.70023       	94.00585       	95.43234       	94.39009       	95.47953       	96.31308       	93.03645       	93.959854      	95.91234       	93.69689       	94.4902        	97.725105      	96.5944        	95.67958       	96.28719       	96.1619        	94.74809       	94.90081       	94.14385       	97.27019       	94.4978        	92.84681       	95.71298       	97.36031       	93.16674       	92.97889       	95.77216       	95.02135       	93.56041       	92.809525      	93.96319       	94.76848       	93.72057       	93.00453       	94.74388       	95.6757        	92.69511       	93.74537       	95.12575       	92.23409       	91.26514       	93.91678       	92.427444      	91.15072       	93.47264       	94.66097       	92.53217       	91.073074      	91.778496      	93.98046       	92.49637       	90.325386      	92.22289       	94.126724      	91.895744      	92.78883       	94.594574      	93.97008       	92.681625      	95.93504       	96.255875      	94.07474       	93.07166       	94.365234      	95.411545      	95.44888       	95.05944       	
99.132515      	99.20865       	97.31269       	100.2624       	102.685234     	99.959335      	99.75997       	103.888466     	104.4161       	106.36666      	106.57909      	93.20008       	93.5011        	93.840294      	94.33204       	96.341385      	94.281944      	92.49943       	98.202896      	91.601974      	80.78026       	76.188736      	73.37198       	73.79882       	75.351204      	72.90789       	77.31212       	78.26035       	79.66615       	84.1807        	96.76828       	97.39589       	93.71779       	95.36994       	97.84862       	94.11099       	94.44182       	98.13366       	96.52979       	95.42447       	95.155365      	95.725624      	96.91264       	93.73314       	92.88322       	97.41352       	95.49743       	91.584076      	96.11898       	97.23592       	93.09489       	94.0794        	96.34347       	93.275826      	91.75602       	94.26949       	95.75056       	95.11744       	94.15846       	94.571915      	97.16287       	94.52672       	91.6339        	95.79675       	96.64409       	91.53183       	92.553635      	96.58036       	93.11987       	93.46092       	94.516304      	95.462204      	94.69533       	93.2115        	93.991684      	96.5391        	94.29985       	92.29012       	97.03068       	95.29448       	91.32213       	93.52665       	95.53151       	92.141884      	91.72466       	94.16674       	94.124756      	92.32357       	91.28071       	95.03094       	94.41125       	89.81019       	91.2496        	95.0654        	95.8295        	91.650986      	91.19522       	92.91871       	93.52153       	94.13574       	
95.1566        	95.559654      	95.48592       	96.140594      	94.93205       	94.3346        	95.40788       	97.13351       	97.557144      	100.371735     	101.771324     	95.844315      	91.217094      	91.73682       	92.60137       	95.540695      	97.88339       	100.94762      	102.872795     	90.78569       	82.67779       	82.13033       	84.10007       	81.315956      	81.364006      	80.60954       	84.51285       	93.84508       	94.08553       	96.232925      	98.04874       	94.81074       	93.33992       	96.4906        	96.47901       	91.14387       	91.160446      	98.076065      	95.08452       	93.69514       	95.64055       	95.313484      	94.592735      	94.57604       	96.29881       	94.27755       	93.8647        	93.20804       	95.049934      	95.05596       	92.09884       	92.24063       	94.01049       	92.96733       	90.69704       	91.24512       	94.43548       	95.35742       	94.078575      	92.79211       	94.101616      	94.33948       	91.91904       	93.0048        	95.30693       	92.69751       	92.33175       	95.3001        	93.93567       	92.17122       	94.45189       	95.5238        	92.788445      	91.15427       	92.21972       	93.94593       	92.89012       	93.74565       	92.47108       	91.83281       	93.47401       	94.10446       	92.30667       	92.53877       	94.15118       	93.21334       	92.19197       	91.364914      	90.88557       	92.51964       	92.299484      	90.44308       	92.004715      	92.81359       	92.25225       	90.892746      	90.90596       	91.057755      	90.91896       	90.41606       	
93.11384       	94.531815      	91.57095       	90.79422       	93.479004      	91.5851        	90.98792       	92.96992       	93.759995      	90.60347       	91.22941       	94.34355       	92.75633       	91.700035      	93.14514       	94.66122       	94.20679       	92.14936       	93.96578       	95.724525      	93.26618       	91.82471       	96.28844       	94.642044      	91.758545      	94.12215       	96.220894      	94.83125       	94.76277       	95.833374      	95.97005       	95.90136       	95.3306        	95.62672       	97.1336        	94.43187       	93.62753       	94.44667       	94.788345      	95.81177       	95.03545       	93.22587       	94.460014      	96.53696       	94.88762       	93.756256      	94.84512       	95.49596       	93.06111       	94.798386      	94.86286       	93.68856       	93.120316      	93.31497       	92.50802       	92.66869       	92.991776      	93.90728       	94.53077       	93.07756       	93.104195      	95.56457       	93.956825      	91.86157       	93.91579       	93.81274       	91.286705      	91.54395       	93.850815      	94.855576      	92.50241       	91.866196      	95.159676      	95.869156      	92.902725      	93.1057        	94.89981       	93.25488       	90.955215      	92.73694       	94.14412       	92.803955      	93.481804      	94.36332       	93.43334       	92.15813       	93.321815      	94.956375      	92.30619       	90.84407       	93.71855       	94.6519        	90.434906      	91.221756      	94.24852       	94.29518       	92.08739       	90.85116       	91.189644      	91.77261       	
91.555214      	94.59401       	93.52405       	92.5986        	92.48055       	94.52034       	92.75762       	91.89818       	93.048676      	93.59157       	91.09321       	91.616905      	93.841805      	93.08614       	91.47757       	93.485344      	95.65926       	94.299995      	93.5524        	94.594284      	95.56839       	93.07018       	93.981         	94.69161       	93.39232       	92.17402       	96.009125      	96.21369       	94.18499       	93.87228       	96.16161       	96.215004      	94.721886      	92.33681       	95.52646       	95.70277       	94.43395       	94.94022       	95.112885      	94.10775       	93.396255      	95.93822       	95.31932       	94.79517       	96.02954       	95.05571       	95.42317       	94.49477       	93.82          	95.745766      	95.09379       	92.743904      	94.32204       	93.71553       	91.518036      	94.33377       	95.73946       	93.93787       	92.179695      	93.36744       	95.74513       	94.307045      	94.48689       	94.480606      	95.334755      	94.314285      	94.498985      	95.55456       	94.261566      	93.554436      	96.45671       	95.25072       	92.05887       	95.41023       	96.77027       	94.14096       	91.2857        	93.05298       	95.985054      	94.442215      	90.372086      	94.2163        	97.46042       	93.42505       	92.63916       	96.41134       	94.77082       	91.40649       	94.06757       	94.40555       	94.96905       	94.0752        	94.9823        	95.507866      	95.79393       	92.86274       	92.32584       	95.50472       	97.23754       	96.039986      	
92.351944      	95.18677       	94.346504      	93.025795      	94.44506       	94.770584      	93.988495      	92.84119       	93.670906      	94.79447       	93.04757       	91.94243       	95.27088       	95.88409       	92.89181       	94.91104       	96.961075      	94.938644      	94.32002       	94.45826       	96.165764      	95.23547       	94.32974       	94.26539       	94.13781       	94.14088       	95.41347       	95.36168       	94.74928       	94.71676       	96.3804        	96.17078       	94.09901       	94.4216        	96.3698        	95.76879       	94.38189       	95.77109       	95.7534        	95.04867       	96.31755       	96.52193       	95.15111       	93.77129       	93.88807       	96.247505      	94.06925       	90.55596       	93.90771       	95.20653       	91.80223       	91.81876       	95.034065      	94.32177       	92.06117       	92.357925      	94.059845      	95.66382       	92.92994       	93.03725       	96.88594       	95.15294       	91.25301       	95.95104       	96.81857       	91.89659       	92.948044      	97.371864      	93.66108       	89.47852       	93.54252       	95.86535       	92.04088       	90.255135      	94.508316      	96.967155      	92.901825      	90.5358        	96.46992       	95.98239       	90.704865      	91.85055       	97.28039       	93.52786       	90.92178       	96.45102       	97.13904       	91.694214      	91.072685      	95.60174       	95.58863       	91.584175      	91.89842       	96.86963       	95.09203       	88.64754       	88.69348       	90.50105       	90.73637       	91.512344      	
98.68307       	93.86559       	93.94564       	99.862885      	98.2102        	92.97586       	96.30379       	99.461395      	93.23862       	93.65612       	98.441315      	96.350494      	93.21315       	96.66651       	98.33637       	97.051155      	95.92611       	97.99596       	99.78676       	96.062546      	94.30531       	97.27604       	97.34284       	96.62404       	96.37981       	95.850105      	95.370476      	95.92058       	96.44278       	95.229324      	95.063126      	96.96374       	96.806725      	95.36003       	96.18957       	96.84952       	97.026855      	95.67756       	95.00098       	96.827484      	96.810715      	95.223595      	96.40406       	97.183945      	96.18816       	95.80567       	95.32642       	95.740425      	97.04668       	95.25146       	95.06921       	96.55344       	95.49511       	94.13061       	94.85946       	94.78267       	94.020096      	96.886284      	95.85766       	94.86893       	94.4285        	95.25579       	96.37275       	94.120026      	94.10741       	96.40409       	97.65561       	93.71658       	93.88835       	96.89571       	95.98537       	93.00823       	95.29614       	96.72016       	93.54703       	95.6969        	95.951675      	96.534515      	95.228386      	93.45702       	97.058556      	97.61302       	94.63744       	95.4935        	96.78311       	95.52083       	94.36895       	96.44808       	96.95543       	94.895004      	94.48951       	95.44305       	96.46659       	94.97295       	94.931595      	96.64165       	99.94136       	101.09371      	95.52734       	91.70299       	
95.147285      	95.39232       	93.95617       	93.59518       	95.42486       	94.48726       	95.16425       	95.1357        	93.59237       	94.70419       	95.48548       	94.466034      	93.12097       	94.07335       	96.508064      	95.01273       	94.43539       	96.25407       	95.43031       	95.44958       	95.03337       	94.90595       	94.81939       	94.55983       	95.92135       	95.54339       	93.88227       	94.24047       	96.05024       	95.33991       	92.43082       	95.728745      	96.45507       	94.81597       	93.34754       	94.95446       	97.356575      	95.500854      	93.30873       	94.50225       	97.98072       	93.128456      	92.81389       	96.526825      	95.75218       	93.65693       	95.448364      	95.57421       	94.72325       	92.447075      	94.62907       	94.458725      	93.19577       	92.39136       	94.728065      	94.19673       	90.56098       	93.502914      	96.43663       	94.88571       	91.64612       	94.91741       	96.845856      	93.021736      	92.948166      	97.019196      	94.36706       	92.44341       	95.17807       	95.42367       	93.99871       	94.75884       	95.371414      	96.41722       	95.58265       	92.91813       	95.47838       	95.84867       	93.02136       	94.9921        	94.10008       	94.953125      	96.4062        	95.21304       	93.07899       	95.743576      	96.2564        	94.24649       	93.34555       	94.55907       	92.97961       	93.58944       	93.604416      	95.128784      	94.570404      	93.86309       	93.8625        	94.22062       	94.18078       	94.63695       	
94.41011       	97.433365      	93.979744      	93.84823       	96.6447        	96.53365       	92.722885      	94.14174       	97.325676      	93.1853        	91.642075      	95.11498       	95.77908       	93.04609       	92.71846       	95.119255      	95.538124      	94.27656       	93.54933       	95.57905       	95.01397       	93.52356       	94.521675      	95.84022       	94.14246       	93.741295      	95.77775       	95.32548       	92.864586      	93.852036      	96.00153       	94.49146       	93.442314      	95.46845       	95.25024       	95.41552       	94.96596       	93.920784      	94.1644        	93.518524      	94.30467       	95.10332       	94.18863       	92.813065      	95.08846       	94.764145      	93.00162       	93.83287       	95.04023       	94.15085       	93.41904       	94.008095      	92.721725      	92.807365      	93.97564       	94.715645      	93.621         	92.32642       	94.69707       	97.32099       	94.31517       	91.36865       	94.357895      	95.898735      	92.291534      	91.945526      	95.27526       	94.8837        	92.566925      	93.56043       	94.50589       	93.47583       	93.81542       	95.63986       	94.86022       	91.96549       	93.73263       	95.63632       	94.08402       	90.75329       	92.61779       	94.99228       	92.49936       	90.78262       	93.60316       	95.82414       	92.47968       	89.998505      	93.211334      	93.82141       	90.963135      	91.90706       	95.362045      	93.268234      	92.21483       	93.42707       	95.17867       	95.536095      	94.83386       	92.82773       	
95.29798       	96.13567       	94.19002       	91.467606      	94.87589       	93.51249       	91.03187       	93.80541       	94.113495      	91.892525      	94.87221       	94.515594      	92.79443       	94.51415       	93.34657       	92.237305      	95.41554       	93.97985       	95.636314      	96.695786      	93.336914      	93.53968       	98.230034      	93.73901       	91.018135      	96.114624      	95.60877       	93.70244       	94.93028       	95.544525      	94.73776       	95.0003        	94.657135      	96.1263        	96.61236       	93.78974       	94.03636       	95.43566       	95.707085      	95.70765       	94.88086       	93.71567       	94.57552       	95.859665      	93.806274      	92.5868        	95.18632       	94.84294       	93.12133       	94.30016       	95.733116      	93.201225      	92.35645       	93.58769       	93.37924       	92.04827       	93.49999       	95.31615       	93.72503       	94.112274      	95.76305       	94.75233       	92.84537       	94.24505       	96.228546      	95.089554      	92.63929       	94.53781       	95.46635       	93.76449       	95.08252       	95.720215      	94.8551        	94.1707        	93.33423       	93.70012       	92.85678       	92.82797       	93.73646       	94.916916      	92.7883        	91.9668        	94.86449       	94.927284      	92.975494      	93.33586       	94.0665        	92.39767       	92.80047       	93.083046      	93.297         	91.918686      	91.49105       	92.24859       	93.56334       	91.68651       	92.23384       	94.078285      	95.64896       	96.292595      	
95.617096      	93.6116        	93.69353       	95.55457       	93.66182       	92.71623       	94.89017       	94.40499       	92.641205      	93.02575       	94.59321       	93.939316      	93.11553       	92.48122       	93.18432       	93.043365      	94.811905      	95.986885      	94.0565        	93.07015       	95.66148       	96.42387       	93.77999       	91.81619       	94.37946       	96.21713       	93.06656       	93.04846       	94.46105       	95.37166       	93.41027       	92.76945       	94.14636       	94.63069       	93.51729       	93.41085       	94.30341       	93.673325      	92.87994       	95.65856       	94.34921       	91.518936      	92.023964      	93.701225      	94.35969       	94.19405       	93.329025      	93.71285       	95.51876       	93.387405      	92.7424        	95.88715       	94.212776      	92.51324       	95.203606      	94.06449       	92.864         	93.4957        	93.45167       	94.03971       	94.49885       	91.69671       	94.662834      	95.64555       	92.98214       	93.556725      	95.09787       	94.763374      	93.80293       	93.380615      	94.7905        	95.9195        	96.11197       	94.767075      	95.179245      	95.572105      	96.05375       	95.261314      	95.98751       	95.13945       	95.342735      	96.70964       	95.44446       	94.05098       	96.5351        	97.60326       	96.55803       	95.47697       	96.22801       	97.377556      	96.538666      	95.89733       	95.66649       	97.961334      	98.44914       	98.8175        	102.5245       	94.50264       	82.26624       	74.57042       	
94.2891        	96.14657       	97.357086      	93.522095      	93.908394      	96.43504       	94.967705      	94.06404       	94.68428       	94.52304       	94.57662       	92.11268       	92.14577       	95.7583        	94.885376      	91.4886        	93.9619        	96.95877       	93.83986       	91.6232        	94.99919       	95.631485      	93.9628        	93.618164      	93.99593       	94.08455       	93.74955       	92.6663        	95.14277       	96.04701       	92.90377       	93.80354       	95.181305      	92.22073       	92.33781       	96.07072       	94.01399       	92.52605       	93.834885      	95.87078       	94.750374      	93.01599       	93.811035      	95.34355       	95.61712       	93.32116       	94.03882       	94.20161       	93.56505       	95.503426      	96.56954       	93.53308       	92.47322       	94.82985       	95.23523       	92.48597       	93.480316      	93.27539       	94.94031       	95.86075       	94.296234      	95.85037       	96.78816       	95.8971        	96.55338       	96.3114        	94.615585      	96.106094      	97.39017       	95.27815       	94.285484      	97.0523        	97.64902       	95.91979       	95.76128       	96.87111       	97.50708       	97.105385      	96.60657       	97.52949       	97.8483        	97.481606      	97.40561       	100.24965      	99.67636       	99.032394      	102.424934     	101.726845     	99.74859       	102.6193       	104.343834     	104.69997      	106.43497      	100.00921      	94.7597        	85.17526       	76.37987       	69.69144       	66.83683       	65.46756       	
94.22606       	93.223434      	93.48817       	92.63925       	96.47368       	96.51777       	92.61054       	94.42126       	95.06644       	94.58283       	95.69532       	96.09791       	93.60638       	94.99389       	95.55793       	93.982895      	95.77862       	94.86357       	94.06279       	95.38339       	93.97071       	92.52164       	94.947685      	95.69805       	93.04744       	93.93763       	95.537384      	93.6361        	94.391205      	96.1133        	94.4502        	94.47004       	94.92858       	93.98222       	97.28769       	95.73127       	93.54491       	95.97552       	96.869156      	94.3813        	93.41497       	95.6244        	94.059044      	95.618904      	96.19287       	95.03931       	95.82606       	95.9591        	95.31945       	95.68506       	96.76615       	97.52824       	95.73279       	96.03702       	95.70397       	96.79027       	96.70544       	94.738235      	95.78659       	98.318924      	98.61982       	97.52583       	97.98446       	99.55949       	98.964035      	98.142296      	99.23112       	100.08957      	101.348564     	98.028496      	99.7444        	102.7906       	100.973145     	100.710175     	101.70455      	100.99317      	100.68754      	103.7835       	104.25229      	103.346886     	104.44809      	105.28817      	106.37853      	106.71001      	106.94878      	111.05989      	113.88658      	112.50094      	110.75145      	109.70341      	98.1938        	85.461945      	81.628975      	80.6231        	76.735954      	72.6471        	71.24309       	71.28952       	71.120804      	71.500046      	
95.55242       	94.61884       	92.34021       	94.56815       	96.26209       	92.43473       	92.40002       	92.65821       	93.36299       	95.045746      	92.83963       	92.98314       	97.24281       	94.07263       	91.68509       	95.4559        	95.70143       	93.12526       	94.482376      	95.71403       	94.387276      	94.92131       	95.49815       	94.70271       	93.710045      	92.614105      	93.86837       	95.41117       	91.6915        	92.611015      	95.69227       	95.66059       	91.64511       	93.68993       	98.19935       	93.57516       	91.997475      	96.24201       	96.74482       	93.69321       	94.715294      	95.93526       	96.12393       	96.39786       	94.40355       	96.51478       	97.111084      	93.76956       	95.468376      	96.417114      	95.78312       	97.02245       	96.910675      	96.56813       	98.18747       	97.70363       	96.439095      	96.47044       	98.218636      	99.00485       	97.773026      	101.176865     	103.23377      	100.51583      	99.415054      	101.77858      	101.485664     	101.24665      	101.18038      	101.813324     	104.31294      	103.55711      	104.11581      	106.11149      	106.449326     	106.62947      	108.46983      	108.433365     	108.09063      	111.48132      	114.53648      	111.57492      	113.6544       	118.3794       	117.929565     	120.2695       	111.82691      	97.405         	88.2674        	82.395004      	79.68068       	80.70861       	77.33369       	73.12519       	75.86946       	76.57672       	74.07904       	73.75615       	74.09764       	76.03771       	
97.23795       	95.84862       	99.28697       	96.210075      	94.465164      	98.25077       	97.09344       	93.437775      	94.277214      	98.72983       	97.243484      	92.75846       	94.280426      	96.77066       	96.49724       	95.736664      	95.81226       	98.04232       	96.90716       	95.36839       	97.64629       	97.47408       	94.68612       	97.04244       	97.57944       	96.89417       	95.23486       	96.67733       	99.0527        	97.40905       	96.58995       	99.25452       	98.8173        	95.35652       	96.24059       	99.72278       	98.75968       	94.46042       	95.865166      	99.23299       	97.89091       	96.252945      	99.20073       	101.58236      	99.451225      	98.71971       	100.59376      	99.7771        	98.94777       	100.73279      	102.498726     	100.2205       	99.196236      	103.83768      	103.85958      	98.33845       	100.43034      	103.25935      	102.518105     	101.977615     	103.207466     	105.283844     	104.495026     	103.26423      	104.709335     	106.81592      	105.881546     	105.829384     	108.07654      	107.14282      	104.63516      	106.85311      	109.41291      	108.09679      	107.80775      	108.78372      	111.5822       	112.0227       	109.52035      	109.70166      	115.67099      	113.89491      	111.021225     	114.3685       	120.03139      	113.29518      	98.315704      	90.27982       	84.164566      	80.925896      	79.81477       	80.73699       	80.617294      	80.15551       	78.23201       	81.55432       	81.43937       	80.041176      	77.88372       	77.83885       	
96.14837       	97.25167       	97.88172       	95.136246      	95.89586       	97.663826      	96.36214       	95.74124       	97.17844       	96.109726      	95.31442       	97.56616       	96.9792        	94.841354      	94.20009       	95.59938       	97.896126      	96.75056       	94.5747        	97.215935      	97.94486       	94.81462       	95.47377       	99.37434       	94.282745      	92.94445       	95.57989       	95.96888       	94.869         	96.00713       	98.22114       	97.46425       	95.57868       	96.150764      	98.82759       	98.32198       	95.95338       	97.20413       	99.492935      	98.03482       	97.40473       	97.591805      	98.76097       	98.47258       	99.10927       	98.33798       	98.91028       	98.637054      	99.43895       	100.5643       	98.14823       	98.90887       	102.498825     	100.14278      	97.58971       	99.84405       	101.49379      	101.19812      	99.1884        	99.59091       	102.34427      	102.92078      	100.47925      	102.606026     	105.39556      	101.89132      	102.57071      	105.637245     	103.97738      	104.47773      	106.705414     	106.730095     	106.19967      	107.611725     	108.21172      	110.33471      	110.45674      	109.175224     	113.069695     	116.0815       	113.42358      	115.565506     	120.70935      	121.89704      	121.12328      	103.804794     	92.052704      	87.03686       	83.54217       	79.22078       	79.45549       	79.78536       	78.125885      	77.27741       	78.84191       	78.53891       	77.025116      	77.72522       	78.61171       	78.2284        	
94.461784      	96.817665      	97.19811       	94.22848       	96.38118       	97.34305       	97.34281       	95.47026       	95.648315      	96.380295      	96.117905      	94.360146      	93.9593        	98.632904      	96.63183       	93.133545      	96.81967       	97.558464      	93.92976       	93.773834      	98.67703       	97.867485      	93.69727       	94.99916       	98.024536      	95.64731       	93.8219        	93.920616      	97.08105       	95.396515      	93.61107       	97.32325       	98.4517        	97.0584        	96.19654       	97.42541       	96.3809        	95.42895       	97.93855       	97.186035      	95.785645      	96.882645      	98.19467       	99.28632       	95.50534       	94.256874      	97.070175      	98.0294        	97.13131       	98.137924      	97.901245      	97.360435      	97.36959       	99.07495       	98.13691       	97.55152       	98.92469       	99.17327       	99.472015      	99.61513       	100.37392      	101.87373      	101.96599      	100.82561      	101.58862      	101.75494      	102.27153      	102.16633      	101.822586     	103.71784      	107.63127      	106.478        	105.53805      	107.77356      	110.128784     	108.99704      	110.080414     	112.04964      	112.009796     	113.00136      	114.234245     	116.75542      	120.66911      	120.669846     	118.55425      	103.26799      	90.99913       	86.927315      	85.34822       	79.25288       	78.36427       	81.1961        	81.651726      	79.29468       	77.547165      	79.67492       	80.198135      	80.99352       	80.059296      	78.41196       	
94.479866      	93.83742       	96.1444        	95.922714      	93.487144      	94.39778       	95.48659       	96.04298       	94.54139       	94.562         	96.46269       	97.43705       	94.82897       	94.343544      	96.41633       	95.34382       	95.10845       	96.02983       	95.26728       	94.45964       	96.01614       	95.91961       	94.53403       	96.241585      	96.1667        	96.17106       	97.352264      	96.301994      	97.314804      	98.450645      	99.13649       	103.907364     	105.87629      	98.89209       	94.4063        	93.64906       	94.631996      	94.82527       	97.76555       	96.88176       	95.88028       	96.472626      	95.24333       	95.91584       	96.75211       	97.305626      	98.59335       	98.55577       	96.1754        	99.106636      	99.931725      	97.462296      	99.21541       	101.12204      	100.164604     	98.32462       	100.73747      	100.00058      	99.01177       	100.41466      	100.758736     	101.83953      	101.80724      	102.373604     	105.232635     	103.06893      	101.05279      	105.4954       	107.34354      	103.73465      	104.75699      	108.81337      	106.31063      	105.11942      	107.86323      	108.78201      	108.31055      	110.09698      	110.73658      	112.99954      	112.61203      	113.92997      	118.1637       	117.41806      	115.96172      	106.84254      	95.04431       	86.30771       	84.172775      	82.97713       	79.25757       	77.59842       	79.49035       	80.59314       	78.94054       	77.16747       	76.13087       	77.64139       	80.51983       	81.0919        	
96.17258       	93.872505      	93.59406       	97.180855      	97.1566        	94.19421       	93.04529       	96.12566       	96.531586      	94.27292       	94.21086       	95.33297       	94.826225      	93.6324        	95.70622       	96.43983       	93.55285       	94.156746      	96.764595      	95.22929       	94.87309       	95.86678       	96.24365       	96.856064      	95.51046       	95.155         	97.61502       	95.409096      	92.42209       	94.87822       	96.343506      	95.31158       	94.57251       	95.24846       	96.68138       	95.313446      	95.33601       	95.95534       	95.93568       	95.498985      	94.93034       	95.9018        	94.89162       	95.24234       	98.78895       	98.34984       	95.25062       	97.55571       	99.77825       	97.419075      	96.51855       	98.152435      	99.320786      	97.3322        	97.58957       	98.57541       	98.57352       	98.429695      	97.99849       	100.52806      	100.537605     	99.40447       	101.7671       	103.1501       	98.892685      	99.847534      	104.14892      	102.37926      	98.724174      	101.759476     	104.741425     	101.87385      	101.93099      	105.596634     	106.29585      	105.88411      	105.34858      	106.334526     	110.834076     	108.41783      	108.42366      	112.74726      	113.68018      	113.51653      	119.03573      	107.154434     	94.98017       	88.78389       	85.97542       	82.6972        	80.55102       	79.19921       	79.122955      	79.85201       	79.09659       	77.8468        	77.79163       	77.87227       	79.41936       	80.85448       	
94.119316      	93.89395       	96.270706      	94.833626      	92.172195      	95.91171       	97.49318       	93.2065        	94.03635       	96.41834       	93.59185       	93.783035      	96.45006       	94.62736       	93.61309       	94.384125      	94.86195       	95.51756       	95.356964      	94.42362       	97.31605       	96.317215      	92.31512       	95.60372       	97.475105      	95.65115       	95.56011       	96.12732       	95.437         	95.31721       	94.36467       	93.8131        	95.614006      	96.51411       	96.147545      	95.894035      	95.69367       	94.22477       	95.524506      	96.22462       	94.88577       	94.59884       	96.37077       	96.23551       	95.38761       	96.28751       	97.33371       	96.761765      	95.042076      	95.796196      	98.536385      	98.58353       	97.93009       	98.67592       	98.79245       	97.50078       	97.309326      	96.34317       	97.55428       	98.04626       	94.308784      	100.961426     	103.93677      	101.18359      	100.55789      	101.99345      	100.07978      	100.93567      	103.82364      	101.211876     	99.23739       	105.78049      	105.53352      	105.800606     	106.235054     	106.49163      	109.35168      	108.34401      	107.15266      	112.13086      	112.16889      	109.36817      	115.01193      	117.624306     	118.2187       	114.46852      	103.05077      	91.538994      	86.20926       	80.90152       	78.9994        	81.13649       	76.55112       	77.028786      	82.75145       	81.38317       	77.96628       	78.114075      	80.33009       	80.41537       	
95.28081       	96.98193       	96.99512       	94.873955      	93.69401       	96.569         	97.90103       	92.8622        	94.431206      	98.9569        	96.50988       	92.60682       	95.78145       	98.420784      	93.4336        	93.57893       	97.2954        	96.27062       	94.67648       	96.24812       	96.89234       	97.71913       	95.39099       	95.80146       	99.44311       	96.652084      	93.13737       	97.357376      	98.17789       	96.02249       	96.57282       	97.68356       	98.111336      	97.921844      	97.59647       	98.04277       	99.39062       	98.91069       	98.55401       	100.00164      	98.79064       	96.889084      	100.90649      	102.6569       	100.16183      	100.62674      	104.2218       	103.440636     	100.33469      	102.11711      	105.8807       	106.084305     	104.417725     	107.44472      	111.90486      	106.61409      	93.22921       	82.46137       	77.30391       	74.89519       	79.22582       	88.120926      	93.90671       	99.15284       	102.04357      	103.19076      	101.335014     	100.770096     	104.45672      	104.90663      	102.600945     	102.66102      	107.00797      	108.27702      	105.405685     	106.049446     	109.43249      	109.5419       	107.88504      	111.4289       	114.71978      	113.57452      	114.76873      	120.56848      	121.99874      	117.16521      	101.939896     	92.79016       	85.8964        	83.81258       	81.03382       	82.0301        	80.76876       	78.07122       	78.91923       	79.091225      	79.70094       	79.50169       	79.96248       	80.71701       	
95.27693       	96.75188       	95.06105       	96.995346      	96.72835       	95.002655      	97.62257       	97.74487       	94.9724        	96.788376      	97.21654       	96.09166       	96.63372       	97.69654       	95.7991        	96.2955        	97.081985      	96.244156      	97.66054       	97.18034       	97.998985      	98.67402       	97.23687       	96.41045       	97.808716      	98.02204       	98.33618       	97.9603        	97.739914      	96.89284       	98.487175      	98.98139       	97.74626       	99.339424      	100.686165     	98.720345      	99.87601       	100.14015      	99.566284      	99.69947       	100.753006     	101.12768      	101.31217      	103.662544     	103.51249      	102.885056     	105.759735     	106.55884      	107.062675     	107.975845     	108.50691      	112.2679       	109.08575      	91.119514      	81.48767       	78.85694       	75.306885      	68.95901       	66.911835      	64.69392       	62.230137      	64.94147       	78.865395      	101.403755     	103.34107      	100.71056      	102.87586      	103.40944      	100.634514     	104.80036      	107.06308      	101.97322      	102.2745       	109.2289       	105.94233      	105.13687      	107.7707       	109.28499      	109.29018      	109.949394     	110.824936     	114.76625      	115.2716       	112.841934     	120.76242      	121.95417      	101.70236      	92.66792       	91.98682       	83.64998       	77.492035      	80.30139       	79.778145      	76.87481       	78.35638       	80.72692       	82.79511       	82.26634       	80.51915       	78.45384       	
93.50227       	98.94556       	98.5107        	94.13203       	95.701996      	99.245895      	95.48173       	93.848465      	98.94416       	100.263275     	95.679115      	96.142525      	99.75562       	98.45395       	95.733086      	98.47529       	101.314        	97.028114      	95.59577       	99.20346       	100.15548      	97.359566      	98.91235       	100.3223       	100.32584      	100.09156      	103.11298      	101.82944      	100.83864      	100.42659      	103.0312       	103.139694     	99.44935       	102.53755      	105.93571      	104.44242      	103.522964     	103.31397      	105.489395     	105.86234      	105.24276      	108.02746      	110.24166      	108.13378      	110.1089       	114.09034      	111.05565      	104.30693      	100.185356     	91.543564      	83.07466       	80.11357       	78.84826       	76.02885       	71.957184      	69.48731       	71.928024      	70.49713       	66.272514      	64.96791       	71.72946       	68.9801        	71.18231       	97.96412       	103.53327      	99.26069       	98.23295       	103.3076       	105.26518      	99.73214       	98.42765       	106.78608      	105.01122      	99.6722        	103.58098      	109.59916      	104.77108      	102.88749      	108.325325     	111.69933      	108.62662      	108.87348      	116.33961      	116.85636      	114.15262      	120.74947      	119.93562      	101.23312      	86.3941        	85.99379       	85.08716       	79.37505       	77.038536      	79.06308       	81.5619        	78.997955      	78.27375       	79.03612       	80.06789       	82.41706       	
95.209526      	98.04434       	98.49722       	95.08          	95.82385       	99.717285      	98.88936       	96.56042       	98.346924      	100.84498      	99.56573       	98.37936       	98.71727       	100.833855     	100.96239      	97.894165      	101.22022      	102.09901      	99.44266       	100.33207      	104.91581      	102.61214      	101.33017      	103.74102      	103.797104     	102.71233      	104.774536     	104.04393      	103.654976     	104.29206      	104.240204     	105.56905      	106.434814     	108.77311      	108.36081      	105.965805     	108.80119      	113.885414     	113.01537      	110.5249       	115.04906      	121.24352      	107.98674      	102.124405     	101.84367      	94.32343       	84.75343       	82.62432       	82.220245      	79.21322       	75.03389       	75.5899        	77.31517       	74.71845       	71.8185        	73.35126       	74.16739       	68.99293       	68.370926      	70.400734      	64.55276       	65.54615       	77.521614      	93.086555      	98.13842       	100.25325      	104.64145      	103.529655     	100.05866      	102.161606     	105.438156     	105.426155     	101.68047      	104.41127      	108.83005      	107.16822      	102.90088      	108.25125      	111.70433      	108.48023      	109.06166      	114.823166     	116.02593      	114.66361      	118.38318      	123.941246     	116.31607      	94.938614      	88.69404       	89.76196       	84.155594      	78.68072       	82.158806      	82.60707       	78.03061       	79.06498       	83.100296      	84.42223       	82.41419       	82.44721       	
94.57588       	100.63948      	101.33137      	97.12834       	97.05354       	100.89775      	100.58485      	100.316826     	100.4852       	101.39867      	101.87739      	101.53041      	102.400925     	103.29416      	102.25245      	102.46982      	102.8874       	103.45096      	102.67787      	104.109184     	106.01199      	104.86975      	103.74651      	106.93983      	108.6966       	107.19278      	107.72226      	108.87657      	110.18849      	109.75994      	111.253975     	112.084885     	112.98265      	112.45102      	113.67838      	116.59205      	117.43293      	118.39289      	117.675064     	107.93709      	100.56617      	93.15946       	90.4225        	84.95074       	80.49144       	79.69113       	80.34728       	79.84174       	78.24089       	77.002815      	77.93547       	76.60941       	75.67349       	75.1069        	74.75235       	73.396126      	72.26238       	70.51027       	70.17691       	67.6685        	64.38707       	73.98548       	78.865005      	85.68543       	100.30614      	104.62171      	102.12132      	103.45944      	105.15811      	104.842896     	104.71697      	104.79329      	106.438126     	107.39843      	107.043        	107.4489       	108.0256       	108.13387      	109.60865      	111.29735      	111.33361      	111.38162      	113.80022      	116.63656      	116.54316      	121.052086     	117.07503      	102.24985      	93.41287       	90.45405       	88.43919       	82.06701       	79.84352       	81.67087       	82.39328       	80.83969       	80.63455       	81.450485      	82.16812       	82.710785      	
94.503006      	102.25293      	96.509445      	98.23598       	103.6844       	99.87426       	98.79488       	103.953545     	102.60156      	100.89479      	99.63071       	102.73466      	103.93552      	100.99305      	100.1447       	105.350494     	103.856255     	102.828354     	105.8494       	106.02025      	104.593575     	107.62528      	109.36046      	108.5713       	109.08797      	111.082466     	111.24804      	112.71666      	112.9196       	113.91878      	115.56387      	116.3846       	117.99574      	124.07886      	116.45883      	98.96388       	94.824066      	93.880135      	86.57068       	84.30611       	84.04601       	80.47391       	80.53873       	82.56572       	80.41922       	78.699776      	79.34973       	78.88673       	77.74771       	78.84855       	76.49839       	78.38876       	77.73827       	74.15043       	75.28262       	75.86793       	69.59699       	70.051575      	74.213974      	68.07837       	64.52465       	67.7461        	75.74279       	87.06245       	98.59545       	101.0901       	103.57667      	100.98481      	97.864174      	102.11461      	105.329475     	101.23937      	101.48156      	107.373886     	105.31429      	103.331055     	107.80062      	108.85001      	106.96907      	107.45944      	110.89047      	112.4839       	111.22244      	112.53429      	117.810616     	121.27969      	118.1516       	107.71683      	96.37923       	89.2326        	87.434784      	82.764404      	79.23011       	81.43173       	83.084595      	81.38839       	81.939995      	83.27714       	82.48414       	81.048836      	
100.47489      	100.993935     	102.87994      	100.06883      	100.18271      	101.39759      	104.42468      	102.765976     	101.03968      	103.495026     	105.245        	103.00572      	107.3147       	108.244354     	108.25788      	106.26036      	109.39476      	111.79651      	111.13778      	109.962685     	113.95764      	112.71247      	112.19306      	112.43152      	114.80055      	117.06014      	114.47957      	117.02124      	124.10392      	116.25705      	114.36054      	112.96794      	101.06145      	91.85135       	89.88954       	88.585434      	85.813034      	81.21772       	81.9558        	86.309204      	83.86759       	80.08339       	81.87537       	85.584946      	81.97474       	78.70165       	82.8885        	82.21413       	77.30571       	79.58263       	82.38567       	78.26697       	76.59644       	79.2266        	79.27901       	75.5241        	74.77456       	76.02598       	74.9339        	69.46103       	68.35264       	65.653984      	67.33193       	80.83064       	97.39456       	100.978355     	102.73323      	104.3962       	104.140366     	102.39746      	103.751816     	105.42549      	105.14857      	104.00502      	106.67505      	104.967804     	105.66537      	106.7454       	108.47607      	109.53938      	108.423256     	109.99898      	112.54119      	113.15523      	113.56616      	117.490364     	122.73063      	112.40922      	96.62129       	89.81219       	86.77546       	81.783356      	80.11559       	79.74594       	79.70444       	80.57821       	81.42753       	81.82347       	81.30301       	80.74574       	
101.966095     	100.272514     	102.630295     	101.28352      	100.2225       	104.305954     	105.39842      	101.853096     	102.84916      	106.53829      	105.5383       	103.435196     	106.58066      	109.2066       	108.324715     	106.27675      	107.84896      	110.6654       	109.52967      	109.37849      	112.60939      	115.193085     	114.10571      	114.864        	120.30698      	120.92396      	124.244576     	115.002716     	99.6637        	89.69915       	89.83312       	89.38          	86.25195       	81.28094       	80.84095       	83.17745       	83.861275      	83.440704      	82.34223       	82.49879       	81.70804       	81.71696       	80.89409       	79.35838       	80.172844      	80.980354      	79.00355       	78.94444       	78.76213       	76.967896      	78.55582       	78.27842       	74.34929       	76.567085      	77.34516       	73.91199       	74.46106       	73.30566       	72.59465       	70.48354       	69.081795      	66.21363       	67.97575       	74.548386      	90.65734       	101.10407      	100.50518      	99.77009       	101.53923      	101.14814      	100.03742      	101.689415     	103.09897      	102.466324     	104.72499      	106.35491      	105.39971      	106.022385     	106.693794     	108.06947      	110.41442      	110.601715     	112.34562      	115.757195     	119.37602      	117.56897      	121.9364       	117.06581      	98.78592       	90.50385       	85.912544      	83.057846      	80.53303       	80.68715       	80.92492       	82.034065      	83.36504       	83.14267       	82.26978       	80.81768       	
103.0052       	103.51444      	104.32443      	102.793655     	103.74411      	106.399796     	106.14506      	105.16845      	107.145195     	107.63593      	109.756256     	110.48406      	109.46394      	110.09814      	112.32609      	112.13433      	115.1526       	114.60631      	113.89619      	115.1129       	117.537834     	118.52438      	121.38351      	123.490204     	124.12931      	126.11423      	113.006035     	97.80698       	86.35998       	84.12081       	84.13745       	84.18651       	84.97724       	84.71518       	85.23165       	84.78296       	83.6534        	83.73003       	83.95704       	83.499146      	83.92872       	83.78943       	83.42573       	84.237114      	84.39025       	82.93342       	80.92931       	81.619156      	81.069244      	79.61346       	77.81425       	78.53372       	79.5122        	78.75927       	76.86922       	75.1134        	76.41764       	74.642975      	73.321686      	73.55816       	69.21623       	67.700455      	70.71348       	77.44141       	88.462074      	100.58015      	101.84256      	102.75606      	101.470634     	100.51111      	102.13148      	103.62359      	102.70904      	101.91051      	104.77027      	104.98062      	103.20109      	105.057205     	106.34236      	106.562546     	108.58387      	109.670425     	110.89474      	112.52823      	114.40328      	117.379105     	120.83329      	118.96608      	103.8846       	94.112595      	87.78985       	82.52576       	80.92793       	82.09827       	80.29689       	78.68881       	81.056114      	82.93775       	83.6751        	84.10619       	
103.91594      	102.83959      	106.35737      	105.80035      	103.5138       	106.10677      	107.66565      	106.87044      	107.11142      	109.39202      	110.10164      	108.482704     	110.7492       	113.246826     	112.24532      	108.780045     	112.3793       	117.165764     	117.11955      	116.839485     	119.802734     	121.355515     	121.88688      	123.54933      	128.74118      	111.72724      	98.650314      	89.30326       	86.21908       	86.15474       	83.21746       	86.008995      	87.93034       	85.968155      	84.0579        	85.68612       	86.72401       	85.90201       	84.37664       	85.189896      	85.869995      	85.27592       	84.81318       	85.85062       	84.407364      	82.94467       	84.369316      	85.194084      	81.521126      	80.40938       	83.752495      	82.274506      	78.95316       	78.875084      	81.9073        	78.79613       	75.75937       	74.97961       	76.016495      	73.3274        	69.93934       	69.19514       	68.910355      	69.74594       	81.82514       	99.473755      	103.59136      	101.8357       	100.78402      	103.98931      	102.73511      	102.377975     	105.7621       	105.25814      	104.66458      	105.52242      	107.585655     	107.58081      	106.07696      	106.8128       	108.689735     	110.33803      	110.4593       	111.70287      	113.860176     	113.96158      	115.65086      	120.675415     	110.97359      	95.280914      	90.02518       	86.24764       	79.74471       	79.88673       	82.17369       	82.05065       	83.03528       	84.73848       	83.66747       	82.33789       	
104.15787      	102.984116     	106.50947      	104.37773      	102.46565      	106.78964      	109.049835     	107.22923      	106.85125      	108.27984      	110.130424     	109.88042      	108.27918      	112.18275      	112.654976     	111.51441      	113.690056     	116.45316      	115.62544      	115.185684     	121.249435     	121.40888      	120.94003      	126.18204      	122.93507      	104.17679      	95.77108       	89.08227       	85.28312       	85.72938       	86.57126       	86.35218       	84.78423       	83.54939       	89.97969       	90.36649       	83.1932        	84.98848       	87.33751       	85.494         	85.67362       	85.82079       	85.22865       	85.38429       	84.32264       	83.60931       	85.593         	82.769035      	78.53157       	83.60829       	84.05969       	77.39575       	79.61459       	83.103325      	78.03431       	74.991806      	76.27377       	76.86423       	74.16755       	69.56538       	72.285835      	72.53884       	64.902824      	65.56514       	80.73295       	95.03618       	99.43961       	100.75487      	104.941        	103.138565     	100.54544      	104.7345       	103.41844      	101.520004     	102.85791      	105.81116      	106.0369       	103.10148      	105.21135      	109.800064     	107.480545     	106.00432      	110.06217      	112.96626      	113.93575      	114.10275      	116.23183      	123.44093      	112.4113       	96.84803       	89.49556       	91.10326       	84.05132       	80.62633       	82.27348       	82.451584      	79.8305        	79.712906      	80.1007        	82.27819       	
102.74107      	102.62456      	105.420784     	103.95771      	102.49692      	104.38028      	105.88753      	107.22507      	107.25139      	107.39946      	107.84106      	110.0964       	109.01104      	109.08424      	111.18948      	112.63867      	113.73591      	114.79395      	115.02585      	117.62987      	120.15514      	120.400986     	123.01163      	129.73805      	121.45323      	102.817795     	95.63872       	91.50696       	86.87939       	84.56176       	87.3841        	85.22013       	85.29256       	86.13046       	85.9296        	85.50109       	85.4415        	85.88753       	86.43819       	84.27147       	85.72496       	87.39464       	85.1537        	81.854126      	85.650665      	87.166145      	81.07895       	80.958336      	83.56365       	83.79603       	81.25288       	78.92676       	81.187256      	82.39594       	76.40497       	75.911026      	78.764336      	76.19372       	71.67434       	73.68007       	73.34593       	67.39322       	66.9701        	67.18262       	70.35272       	89.46289       	102.09657      	105.63915      	104.95324      	100.33924      	102.99672      	105.23454      	102.71256      	102.05711      	105.192024     	106.91063      	106.24076      	106.621475     	104.569496     	107.48891      	111.05789      	108.49476      	108.65016      	112.98686      	114.99806      	113.71244      	115.24651      	119.983955     	119.388626     	102.93092      	93.17873       	88.57606       	81.90529       	78.132835      	80.88916       	85.44267       	86.1143        	83.31688       	82.93095       	81.61886       	
104.79337      	98.77508       	102.68879      	105.522705     	103.83996      	103.83012      	104.14576      	108.02823      	107.71415      	101.758        	106.12812      	108.90756      	106.27616      	109.55451      	114.328125     	109.121056     	110.807304     	114.96697      	115.54118      	112.93963      	116.90055      	118.00246      	119.17676      	123.53617      	124.59693      	111.242905     	98.91905       	89.41015       	86.851265      	87.97534       	83.08683       	84.14189       	88.05131       	87.07929       	85.93598       	84.39716       	85.95736       	86.160324      	85.02977       	84.48689       	87.03785       	85.16149       	83.795494      	85.10997       	84.11361       	81.316765      	82.12423       	83.22881       	83.21          	82.45019       	78.97253       	81.25984       	82.800415      	78.58058       	77.827415      	81.25155       	75.858826      	73.17983       	75.25828       	72.9084        	69.125275      	71.04711       	70.394196      	65.04312       	68.361664      	82.38058       	101.40609      	102.22399      	100.210045     	102.863785     	105.71415      	102.554474     	102.843575     	104.00094      	104.70333      	101.54943      	102.181076     	106.25777      	105.79138      	105.04464      	108.493324     	111.42217      	109.38631      	111.28798      	115.02452      	114.546524     	114.44632      	118.288445     	120.99029      	101.23943      	89.66231       	88.020744      	85.20203       	80.79639       	80.69119       	82.41165       	82.70616       	84.209404      	83.07755       	81.17643       	
102.4566       	104.094284     	102.548996     	105.125626     	106.419464     	102.28873      	103.48035      	107.79436      	106.883194     	104.437325     	108.63354      	110.40694      	109.26685      	107.15649      	109.60035      	113.17956      	111.83879      	108.97031      	114.52481      	117.87315      	113.56845      	116.85339      	121.67514      	122.98056      	126.40762      	115.082115     	101.2457       	94.22259       	88.71069       	85.848755      	87.0169        	85.50864       	85.335625      	86.84289       	88.113716      	86.24623       	86.04466       	86.374176      	85.78216       	86.18791       	86.0714        	86.57452       	84.91264       	83.79713       	85.73951       	84.6681        	82.2481        	83.01344       	83.58531       	82.58252       	81.30196       	81.37648       	81.489655      	81.98116       	77.90123       	76.76199       	78.916626      	77.0523        	73.64842       	74.065865      	74.42836       	70.61707       	67.05749       	66.40521       	74.05268       	79.88197       	94.185356      	101.40299      	102.38858      	101.2805       	102.56017      	103.83875      	103.45895      	103.04284      	103.3235       	105.65077      	104.24864      	103.16166      	107.54241      	107.90992      	102.57014      	106.35417      	111.99297      	109.83574      	109.49695      	114.13371      	117.58326      	118.71065      	117.88593      	105.03161      	98.243416      	87.126945      	79.97374       	79.670944      	80.14908       	79.152885      	78.725235      	80.16826       	81.748695      	82.82793       	
98.50575       	103.06554      	103.95674      	102.91164      	102.929726     	104.84245      	104.010254     	106.58817      	106.07902      	106.72321      	106.16397      	107.48638      	107.19516      	108.62957      	109.79831      	108.49629      	109.906425     	111.01058      	112.310715     	114.17049      	114.258415     	116.15518      	120.62089      	122.14973      	125.62517      	119.387726     	102.25652      	95.74938       	88.828735      	86.767         	86.11191       	85.30478       	84.66823       	85.79802       	87.04919       	85.61608       	85.0208        	85.2805        	87.01015       	84.72714       	85.843735      	86.433624      	85.24582       	85.35882       	85.69418       	85.05138       	84.50871       	84.63526       	84.91444       	84.22669       	81.67525       	81.67054       	81.7214        	82.255486      	79.039154      	76.74872       	76.40669       	80.40163       	74.3087        	70.98567       	72.12767       	71.31677       	69.44256       	66.19909       	69.9456        	81.48111       	93.002144      	99.39103       	104.00276      	102.88468      	99.95402       	103.68624      	103.54787      	103.91102      	102.73719      	102.509766     	105.01692      	106.22868      	103.309456     	105.638565     	106.95755      	106.066086     	106.48176      	109.221016     	112.05973      	111.07846      	112.15669      	116.54448      	120.46053      	109.910805     	93.31861       	87.534874      	86.33684       	81.311676      	78.33696       	79.59313       	80.94952       	80.511734      	79.434525      	79.37345       	
69.83154       	83.94203       	92.70818       	99.65913       	103.23165      	107.96788      	103.10425      	104.2548       	107.610916     	108.82572      	104.74361      	104.233505     	110.17172      	112.3315       	106.67547      	108.85908      	112.02577      	112.77565      	112.7549       	113.32515      	115.24842      	116.48661      	118.14103      	121.23945      	126.543045     	124.6886       	105.85828      	96.597206      	90.29733       	83.84887       	84.725716      	87.97385       	85.50013       	84.25663       	85.86491       	87.970375      	86.49751       	84.86103       	87.661606      	87.35994       	84.73671       	85.04529       	86.855225      	84.064606      	83.76856       	85.39746       	84.054886      	82.624954      	82.81387       	84.34834       	83.50579       	80.54184       	81.56547       	84.22136       	81.50202       	79.35462       	85.39936       	79.59855       	71.33943       	73.313705      	73.329544      	70.15348       	67.40719       	66.85513       	70.95598       	79.700554      	91.898964      	100.20479      	103.59942      	101.45145      	101.60482      	102.32909      	102.90333      	102.57836      	102.74382      	104.359566     	103.54875      	105.15584      	106.42015      	105.40135      	105.89323      	106.622574     	110.2617       	109.91822      	109.560745     	113.73714      	115.568375     	115.79373      	116.78026      	117.019516     	103.1185       	92.98641       	87.30091       	81.85635       	79.828606      	80.765         	81.07486       	82.81974       	83.392975      	83.246284      	
70.76998       	70.464874      	76.108185      	100.84307      	104.43344      	103.24837      	104.467026     	107.72038      	104.97188      	104.51517      	108.90002      	106.28671      	105.23439      	110.08346      	110.79381      	109.941216     	110.28864      	111.23645      	113.700195     	113.688354     	113.73367      	117.587975     	119.50378      	119.49747      	125.11446      	128.17656      	111.749435     	98.9821        	92.857925      	88.143486      	85.58205       	82.16833       	85.196         	86.46022       	83.213104      	87.14525       	88.40832       	84.69097       	87.09185       	87.94235       	85.146935      	86.09069       	84.43587       	83.5326        	87.215546      	84.86229       	82.97895       	86.931404      	82.31873       	79.21114       	82.32915       	83.88054       	82.07731       	80.99421       	78.66666       	79.81437       	78.827934      	74.18435       	74.037094      	74.7495        	72.925156      	71.48176       	69.80173       	68.592865      	67.465164      	73.80437       	89.11201       	101.99952      	102.26108      	102.68258      	104.738686     	103.77479      	102.91784      	104.091675     	104.324326     	102.10542      	104.43918      	107.36159      	106.00428      	104.79394      	107.72067      	109.58407      	107.7305       	108.61124      	111.7092       	114.323555     	113.86522      	115.61144      	122.15551      	121.526924     	101.170906     	93.419106      	89.20175       	81.15299       	78.49151       	81.77077       	83.29228       	83.43136       	81.959335      	80.33739       	
67.13719       	68.36848       	77.73725       	95.34444       	101.13044      	103.14931      	108.62347      	103.220215     	100.173706     	109.86604      	106.8935       	97.41639       	104.255615     	110.61008      	107.35554      	105.85993      	112.71617      	116.69649      	115.52287      	115.577934     	118.23938      	116.931404     	113.96863      	115.37235      	125.12578      	130.4789       	118.52532      	109.114456     	102.941216     	90.14668       	88.22041       	89.04155       	85.33264       	84.58713       	87.12312       	87.7711        	88.39994       	85.61076       	86.65083       	90.55988       	86.94853       	82.6842        	89.925224      	88.82292       	82.75915       	85.63672       	88.4118        	83.87613       	85.37006       	85.23197       	83.485634      	83.083534      	84.37809       	82.14898       	82.70783       	78.92994       	77.02144       	82.21574       	77.41361       	70.7829        	75.52342       	75.69648       	67.28548       	67.03423       	70.57744       	68.635284      	80.46931       	100.60161      	102.89918      	102.89049      	102.044235     	101.039444     	106.377945     	105.75551      	101.54766      	109.669365     	108.095505     	99.599495      	105.8076       	109.87639      	106.590706     	106.50345      	109.02583      	108.79163      	110.33837      	111.19679      	112.33641      	114.3875       	114.5252       	116.36071      	106.10039      	92.39006       	83.81908       	85.632614      	85.471344      	81.44144       	79.79534       	81.27939       	83.99831       	84.91954       	
68.899895      	70.52101       	72.137024      	86.09132       	105.20057      	106.10246      	101.666        	102.538895     	107.43448      	105.68602      	108.01507      	106.54928      	107.56452      	108.09567      	107.32433      	106.97243      	109.36952      	111.92785      	112.78052      	109.99071      	112.23861      	113.54223      	116.12941      	117.83503      	118.24776      	122.40764      	128.5731       	112.41949      	96.70395       	89.87886       	87.25          	84.652985      	83.58653       	84.82087       	85.33312       	85.69534       	87.33294       	88.23747       	88.92211       	85.27624       	87.05184       	86.888596      	85.20839       	85.87741       	86.07406       	85.3866        	85.345         	85.72435       	84.05815       	82.234634      	84.20262       	83.298256      	81.688446      	80.30213       	81.37044       	81.791985      	79.535645      	76.921394      	79.50321       	77.04864       	72.06744       	73.99298       	71.90392       	68.616356      	66.137146      	66.411285      	75.4445        	93.77227       	102.6991       	102.44393      	102.25675      	102.35168      	103.81021      	102.97723      	102.08277      	103.17216      	105.12493      	105.21126      	104.348526     	104.18131      	107.43348      	107.83861      	106.23495      	109.33638      	112.92626      	109.54412      	109.27375      	115.41927      	118.26469      	119.04845      	108.51217      	97.41715       	90.543945      	79.84452       	77.93252       	81.046646      	81.42677       	79.488815      	77.72049       	77.15468       	
67.67256       	71.573006      	77.75218       	85.90605       	96.84071       	105.607086     	108.02823      	103.77185      	103.589966     	106.4085       	108.41279      	103.24711      	102.87546      	108.86508      	112.42611      	112.0374       	106.542274     	108.48304      	112.806915     	113.21849      	113.93908      	113.09801      	116.24715      	118.29672      	119.71343      	124.2832       	129.30667      	113.87701      	99.5732        	92.01773       	87.01005       	86.76552       	86.79178       	85.1642        	86.267914      	87.32617       	87.4686        	84.81092       	86.17912       	86.72157       	87.497314      	86.28376       	85.42372       	88.87211       	86.96749       	83.843254      	85.1574        	86.3047        	83.079216      	85.14006       	84.77602       	80.81642       	82.583755      	83.919174      	81.513596      	81.56169       	78.32717       	80.35282       	79.557076      	73.49251       	75.477234      	78.894684      	70.52589       	66.0867        	68.96445       	67.35205       	72.27027       	89.82572       	102.237274     	103.56483      	101.49956      	100.94571      	103.52185      	103.38379      	100.645546     	103.04985      	106.34074      	103.8064       	103.23553      	103.585        	103.75377      	104.00142      	106.04549      	109.103546     	108.52658      	109.37424      	113.03431      	112.58529      	111.930534     	116.56361      	119.829704     	98.93977       	86.554306      	83.96644       	85.6777        	81.445404      	79.57327       	79.74808       	78.529366      	78.96016       	
75.44227       	66.73393       	72.395096      	84.45698       	98.56038       	106.10908      	105.895584     	103.22474      	104.12959      	103.481476     	104.058136     	106.845856     	107.920296     	105.37898      	110.04436      	110.98873      	110.73356      	109.98819      	113.28056      	113.59803      	114.05881      	114.72765      	116.63547      	119.40365      	118.90681      	120.16398      	128.44028      	117.0172       	101.79491      	99.53915       	89.72167       	84.79155       	85.532196      	86.87435       	85.7072        	88.38505       	87.74071       	86.98097       	87.752106      	87.392784      	87.16542       	87.985214      	85.70485       	86.79903       	89.049614      	85.47557       	83.44394       	85.37839       	84.08802       	83.93596       	84.082535      	82.02663       	81.5757        	84.16261       	81.304695      	78.96361       	80.617905      	82.156624      	78.6163        	76.05494       	76.70797       	74.54076       	71.429085      	73.28993       	71.124596      	71.81495       	72.325035      	84.43867       	100.11527      	103.49674      	100.35042      	100.97119      	104.19398      	101.595024     	102.27941      	103.63932      	102.52369      	102.86487      	105.983154     	104.21415      	105.12456      	105.44184      	107.284805     	108.52386      	107.90115      	109.47474      	114.500595     	111.9431       	112.59874      	117.156685     	120.38884      	104.95158      	91.62658       	86.92844       	82.1835        	80.73173       	81.200676      	80.85815       	80.04204       	79.56813       	
68.10068       	73.39821       	71.29593       	79.39751       	95.81376       	104.194016     	103.355415     	101.33217      	102.07818      	103.090324     	104.61864      	105.2612       	107.6305       	110.57225      	105.40907      	106.427734     	111.13777      	109.39808      	111.35079      	112.93566      	112.251045     	115.28984      	116.098946     	117.50871      	118.816826     	121.58806      	123.7834       	125.33102      	107.84203      	98.93256       	91.16004       	84.916435      	85.94447       	87.28941       	86.15935       	85.461784      	87.201904      	88.14537       	85.90262       	89.478424      	88.48198       	84.98858       	87.33265       	86.652306      	85.24797       	86.62653       	85.89485       	84.42085       	85.052666      	84.03627       	83.9533        	84.48218       	82.27204       	80.07626       	83.34537       	83.03634       	78.1113        	79.274445      	80.82225       	76.94089       	74.31951       	75.40349       	73.82531       	69.35059       	68.42559       	68.464165      	74.44762       	87.42181       	99.898735      	102.7107       	102.58653      	102.84467      	103.10173      	103.037346     	100.99517      	105.09117      	102.1495       	99.309555      	101.77233      	106.48138      	104.61982      	104.12419      	105.996796     	106.173325     	106.37751      	107.30639      	109.74822      	111.98481      	111.07854      	111.74116      	118.52847      	112.1555       	93.54035       	86.47447       	83.18724       	78.15017       	76.631226      	77.841446      	80.36075       	80.53505       	
71.075424      	69.26692       	69.318085      	77.72863       	90.9547        	99.56971       	105.56049      	103.08929      	104.0383       	106.82128      	105.14271      	104.54911      	106.685684     	105.11299      	106.20977      	106.61714      	107.148636     	109.20946      	110.37704      	109.33203      	111.856674     	117.65295      	113.214066     	115.23785      	118.636406     	119.027626     	120.25678      	120.98862      	106.507706     	96.910355      	88.69776       	86.2375        	86.95602       	90.0129        	89.975464      	86.64331       	87.94135       	86.66825       	84.83284       	87.59148       	87.64164       	84.68256       	85.39188       	87.948616      	85.0194        	84.45074       	83.68673       	85.831024      	85.29154       	80.65284       	82.66969       	86.00278       	80.9624        	78.367256      	84.30634       	83.40349       	77.838905      	78.11988       	79.223885      	77.35873       	73.25623       	73.627846      	74.547485      	69.17802       	68.776726      	67.90464       	69.04792       	75.80732       	94.97114       	102.28852      	100.28769      	102.21297      	102.46309      	99.717354      	102.068474     	103.180145     	102.3735       	103.42333      	103.67091      	103.653435     	108.50744      	104.96684      	104.408455     	108.3954       	107.9877       	105.84664      	110.01795      	112.47293      	112.412155     	113.39501      	117.032906     	114.182976     	94.97242       	86.12756       	80.59818       	79.86797       	78.305565      	74.67593       	72.51508       	72.75774       	
73.8916        	68.1326        	68.47932       	76.600296      	86.884186      	98.6884        	104.07978      	107.42592      	102.77787      	102.54675      	106.79273      	108.1117       	104.76058      	105.09734      	111.214035     	110.73366      	104.72908      	107.50308      	110.37813      	109.965866     	112.983604     	114.11316      	113.93815      	115.88981      	117.24627      	118.72731      	123.51021      	126.994965     	107.955025     	95.41325       	89.31185       	84.880936      	87.364555      	88.12371       	86.0228        	86.77485       	91.288956      	95.09349       	86.61236       	83.513466      	85.526245      	88.05394       	88.13134       	84.59527       	86.00998       	87.76851       	85.89067       	82.982124      	84.81001       	83.70752       	82.878456      	84.2338        	82.80599       	81.43566       	81.04017       	81.830734      	80.93228       	79.11617       	76.94826       	78.24195       	76.60397       	73.20429       	73.989815      	71.624535      	66.37078       	66.3925        	70.145744      	73.80285       	87.44633       	102.53189      	100.99927      	100.72212      	102.6517       	101.07204      	102.59975      	101.08147      	99.943436      	104.69852      	104.379745     	101.0931       	105.963425     	108.43118      	104.665855     	105.28935      	110.443924     	111.149864     	111.011856     	110.916084     	113.38049      	116.17264      	116.03035      	111.224594     	96.28584       	88.50875       	85.789276      	87.192276      	83.55641       	80.96011       	80.4539        	79.12934       	
75.37558       	72.4214        	71.14404       	73.382034      	82.71428       	98.887405      	106.29305      	102.75875      	103.617        	106.60397      	104.08646      	104.5562       	106.69441      	106.167496     	105.40494      	105.66967      	106.52355      	111.16406      	107.627525     	106.465164     	113.14945      	114.22879      	111.611        	113.494545     	118.28281      	119.87431      	116.942955     	124.03624      	112.34697      	96.97489       	90.398315      	89.75573       	91.229126      	82.66017       	83.42785       	88.23265       	84.391266      	82.943436      	88.56451       	89.35029       	84.242714      	84.23188       	88.59713       	88.5252        	82.91369       	83.70181       	88.69449       	85.91853       	79.93312       	82.91957       	86.60501       	84.31099       	80.0467        	82.796684      	83.863846      	80.80631       	79.26482       	80.70147       	80.41151       	75.527534      	73.16294       	74.80604       	77.21121       	69.11895       	65.16199       	68.88299       	65.945755      	66.390816      	85.792         	100.49716      	99.61761       	99.475815      	99.17448       	99.24585       	99.218636      	97.82581       	100.253555     	99.84895       	97.97042       	99.97232       	102.40923      	98.62801       	98.90901       	103.28276      	105.24767      	102.02507      	104.89582      	107.75256      	106.502365     	105.57634      	111.083176     	111.31734      	99.708176      	93.71936       	90.61385       	86.812164      	83.034996      	80.447296      	78.46648       	79.816         	
74.10132       	71.869675      	71.445305      	72.59981       	81.436844      	96.35901       	104.17858      	103.71404      	102.41833      	103.368645     	104.79077      	104.73889      	104.82088      	108.18903      	108.76969      	108.648926     	108.92254      	110.96367      	108.81428      	110.210075     	112.16672      	112.68297      	112.90224      	114.79526      	112.263435     	118.22206      	120.539116     	123.59521      	117.20483      	102.93867      	94.16722       	88.684395      	85.900795      	84.37261       	88.10595       	86.904976      	85.606255      	86.54607       	85.90346       	86.07248       	88.083626      	88.202545      	84.01876       	84.97433       	88.58554       	85.91734       	84.213615      	84.19552       	84.809326      	83.20405       	82.71814       	82.3094        	83.55293       	84.58998       	80.852455      	80.451546      	80.539185      	79.637375      	78.02089       	79.471085      	76.74563       	73.752205      	75.140854      	75.38362       	72.2643        	68.39814       	66.03095       	67.2215        	77.492744      	92.501656      	99.5485        	102.44151      	98.28239       	96.22845       	99.11514       	100.32454      	97.894585      	98.653046      	99.24423       	99.00744       	98.565445      	99.80978       	99.9289        	99.802055      	99.67465       	102.85125      	104.27235      	101.610016     	103.56784      	108.49507      	108.72664      	110.38672      	106.43902      	103.86259      	92.93316       	85.79904       	84.435104      	86.291794      	89.09543       	91.58458       	
75.60052       	69.36797       	72.11662       	73.26462       	78.471954      	91.54921       	102.24742      	104.05498      	103.46274      	102.5607       	104.90182      	107.56152      	105.4749       	106.85111      	107.63866      	106.264725     	106.87857      	110.091095     	109.47011      	108.0076       	111.60767      	115.56591      	115.41655      	113.3128       	113.96235      	118.75141      	118.562325     	121.05724      	124.53837      	108.094734     	93.49322       	85.342545      	88.284904      	94.577774      	85.34046       	83.71366       	90.97921       	87.18873       	80.54858       	84.45124       	89.81624       	86.39604       	84.52697       	85.81139       	87.996826      	85.438515      	82.83972       	84.70672       	84.17801       	80.176865      	81.06185       	84.72016       	82.98038       	81.71322       	81.55162       	81.68672       	75.8583        	78.60895       	79.48336       	75.12175       	70.898834      	72.933365      	76.00945       	69.62886       	63.995605      	67.85528       	68.3792        	61.498726      	70.62328       	93.66069       	99.87183       	91.636314      	96.302605      	100.08296      	95.89719       	94.03048       	96.569595      	97.790924      	98.41481       	94.83851       	98.05127       	100.30687      	94.47496       	93.995766      	99.44573       	99.30934       	94.64523       	99.6848        	103.52785      	98.31169       	99.758354      	106.25176      	107.59138      	105.66757      	97.24179       	93.062706      	92.95411       	94.16658       	96.49499       	99.38705       	
73.412254      	71.485405      	69.75076       	69.36515       	73.1988        	86.94495       	101.13398      	104.72029      	101.737915     	100.88783      	105.21476      	105.36311      	103.63575      	106.98376      	105.54741      	106.50157      	108.068565     	106.788345     	108.26722      	110.08595      	109.26161      	110.43466      	111.83914      	111.96996      	113.571915     	118.097496     	117.0995       	120.23858      	126.882416     	113.08501      	98.14942       	90.01713       	84.41773       	85.80922       	86.58575       	82.25286       	84.97442       	89.279434      	84.00766       	83.84994       	88.14123       	88.90073       	84.51879       	83.645836      	85.87032       	84.60458       	83.182335      	82.840996      	82.844604      	84.55664       	80.460785      	80.524         	84.41886       	81.20194       	79.13573       	79.58221       	79.31255       	77.05622       	75.560715      	74.46162       	73.89757       	71.627396      	70.88449       	71.138         	67.59865       	65.06871       	64.34337       	66.41904       	68.55008       	81.485664      	97.587555      	98.44237       	93.80419       	92.46585       	96.06332       	97.491776      	93.4631        	96.80091       	98.25511       	96.34354       	92.91492       	95.37755       	97.69218       	95.53493       	94.3722        	98.13848       	99.92906       	94.2734        	95.749275      	100.94777      	99.05628       	93.45029       	97.4861        	101.90775      	101.79464      	101.15312      	99.023         	100.22416      	100.70535      	101.19146      	
74.80782       	69.02036       	70.41827       	70.17946       	70.85339       	76.75798       	96.404305      	104.75359      	103.24939      	103.2541       	107.23135      	106.4163       	105.19503      	111.54412      	108.01425      	104.22629      	108.53336      	111.49433      	109.56448      	106.576065     	110.83419      	113.78275      	110.14671      	111.83675      	115.57319      	116.98267      	119.47794      	121.05932      	124.80919      	118.322464     	99.94238       	92.96924       	89.58109       	84.81058       	83.44654       	87.31629       	86.07536       	86.07866       	89.05888       	90.47025       	92.6288        	92.05169       	85.532684      	82.182846      	85.82875       	83.48045       	82.847855      	85.2087        	83.41804       	82.09593       	83.02361       	83.27633       	80.14197       	79.45947       	79.592354      	79.437225      	77.85188       	77.75524       	77.32332       	75.59045       	73.927605      	73.71303       	72.45104       	68.23609       	67.13786       	67.53596       	66.80523       	62.831734      	66.38639       	77.84102       	93.513535      	93.94121       	94.34732       	94.77893       	95.56372       	95.0912        	95.263504      	95.79595       	95.73197       	95.23139       	98.29869       	96.84276       	93.99503       	96.277275      	98.144165      	95.96216       	95.624794      	98.29739       	98.74297       	96.977135      	98.854256      	99.4913        	100.61004      	100.32724      	102.35423      	102.51697      	100.6431       	99.16521       	98.04389       	97.660835      	
75.92976       	73.33316       	69.730354      	74.17257       	75.718315      	80.705734      	94.889725      	106.26979      	105.92425      	103.75326      	104.71001      	106.83652      	104.43876      	105.30542      	108.46452      	107.45939      	106.733635     	106.16101      	109.3934       	109.49098      	106.71052      	108.10214      	113.44319      	113.55201      	112.6082       	113.16839      	115.967636     	118.75703      	121.91725      	124.676796     	108.444534     	95.834076      	86.39045       	87.033936      	89.45727       	85.36138       	85.18279       	89.0866        	86.03488       	86.361465      	88.29138       	88.89888       	85.786224      	85.23763       	87.761475      	87.2139        	85.16024       	85.34968       	85.071724      	84.26871       	84.37695       	82.97637       	83.22381       	80.982925      	79.72547       	81.95909       	81.8769        	78.15462       	76.49852       	78.00688       	76.14107       	73.79048       	73.50821       	72.24901       	69.7545        	67.71579       	64.81929       	63.31214       	69.15472       	74.63076       	86.27123       	95.230705      	97.32984       	97.48347       	98.508965      	95.32713       	97.23148       	98.26046       	96.17757       	97.53866       	99.270134      	97.34481       	95.394196      	96.52467       	98.31358       	97.14603       	95.88321       	95.59046       	98.98824       	101.91734      	97.98169       	97.2492        	102.575455     	102.55413      	102.27821      	104.45549      	103.26716      	102.135574     	99.83838       	99.36129       	
76.933365      	74.59293       	72.39654       	71.410515      	72.05144       	78.06792       	86.738396      	100.66398      	100.733025     	105.3313       	104.57516      	106.24679      	107.741005     	106.084854     	106.29103      	109.03371      	108.85871      	107.50833      	108.52959      	112.096794     	112.92107      	110.41991      	112.62793      	116.32951      	115.61612      	116.682045     	117.75825      	121.64363      	124.54403      	122.748726     	103.35353      	97.17535       	91.783806      	84.74855       	86.31954       	87.06595       	85.00768       	86.54732       	87.85951       	86.08198       	85.86406       	87.40666       	88.246025      	85.43774       	83.86858       	87.685356      	87.54881       	82.364334      	84.15906       	88.4393        	82.19975       	79.54945       	83.31097       	85.88321       	80.23152       	78.299385      	80.718636      	81.919624      	77.64188       	73.58763       	77.659966      	76.619606      	75.01629       	77.0161        	76.6836        	69.61368       	66.23564       	68.91966       	70.30922       	67.577126      	77.32133       	96.7179        	98.82565       	95.563225      	96.19506       	100.9982       	97.590454      	92.65134       	95.64739       	100.80217      	98.04529       	97.56414       	97.80386       	97.81324       	100.15893      	99.36604       	97.85658       	100.70153      	102.576294     	101.81506      	101.76873      	102.32524      	101.39075      	102.45352      	105.94278      	106.30811      	106.398544     	104.89073      	100.354004     	99.345535      	
72.68604       	78.08185       	72.54982       	68.50534       	77.03086       	79.71351       	81.75658       	96.13834       	105.93893      	105.281494     	101.36169      	101.855515     	106.46275      	104.78819      	99.92631       	106.00154      	110.79802      	104.465805     	103.76613      	110.3967       	108.976364     	105.57823      	110.91553      	114.920395     	112.14095      	112.06189      	117.27663      	120.98642      	120.541145     	121.539566     	113.76265      	103.240585     	90.09203       	85.55588       	85.1595        	86.05851       	84.20935       	86.48284       	84.4598        	84.45386       	85.88386       	85.89688       	85.19393       	84.68757       	84.468414      	84.82095       	84.14501       	82.81928       	83.33936       	81.92154       	80.820816      	80.586586      	82.19242       	79.41157       	76.625435      	79.007095      	78.86388       	73.181015      	74.09195       	77.683846      	76.3387        	75.498146      	76.660675      	80.47936       	78.301445      	73.166         	72.23543       	69.39669       	65.191826      	68.87105       	81.823654      	93.74364       	94.6665        	96.25949       	95.678375      	95.65369       	96.80629       	95.88501       	97.70351       	98.83796       	96.01431       	96.9597        	97.78191       	95.961494      	96.06312       	99.08642       	98.95064       	98.102066      	105.03474      	104.53111      	99.844765      	95.89794       	95.39318       	99.394485      	99.785324      	99.72905       	100.22346      	101.71094      	100.99458      	99.91886       	
77.757904      	73.20336       	71.96861       	71.27495       	70.18979       	69.51744       	83.315315      	98.43722       	101.37313      	99.79232       	101.386505     	106.289345     	102.55728      	102.310135     	106.74199      	105.384445     	102.32158      	105.14223      	107.478386     	107.281235     	108.66008      	107.634315     	110.38126      	112.48013      	112.48022      	115.87544      	118.46019      	115.35848      	118.06766      	124.28157      	110.695        	98.59985       	97.83786       	85.48504       	80.861855      	85.8258        	85.157         	82.98709       	83.39645       	83.64045       	86.27342       	85.70736       	80.63365       	83.566765      	87.25152       	80.157845      	81.00024       	84.937256      	80.65487       	78.30756       	80.06176       	79.09047       	77.47232       	75.186165      	75.62327       	75.41986       	70.34776       	69.74935       	77.667786      	74.656586      	72.96334       	76.69673       	78.74649       	74.38203       	74.23311       	78.73007       	73.96823       	67.34915       	72.827866      	82.74804       	88.17726       	93.78448       	94.72958       	98.539215      	97.04594       	91.69968       	96.46268       	99.66118       	93.30823       	92.01152       	99.460625      	96.97618       	92.55882       	96.59236       	99.5306        	95.927605      	93.04748       	97.22826       	99.31062       	96.705864      	95.04874       	99.85725       	100.155876     	94.183846      	96.504166      	100.43189      	101.80467      	101.65378      	100.725845     	99.33102       	
77.04243       	74.4933        	76.29325       	71.2814        	70.31882       	70.927444      	76.7096        	90.20417       	100.64116      	103.65726      	102.99898      	102.97161      	103.155846     	106.86105      	105.18979      	101.768715     	107.707855     	110.22252      	105.32584      	105.65873      	108.31822      	109.789795     	107.195076     	108.81866      	112.43889      	113.051285     	111.29528      	116.26735      	118.91411      	119.60852      	116.22668      	100.33191      	92.74645       	84.13227       	80.95578       	85.16174       	84.93856       	80.214066      	81.46626       	84.604195      	80.88212       	81.14286       	83.52461       	82.26867       	79.6846        	80.754135      	81.943596      	79.46701       	79.118004      	78.8192        	78.40592       	76.648796      	74.01293       	70.78802       	72.095215      	69.74382       	72.1222        	76.835976      	73.34953       	77.34861       	81.40994       	82.45704       	80.77355       	85.33678       	86.12688       	85.782684      	82.33381       	78.27109       	83.830864      	93.71199       	94.6844        	95.58013       	97.45545       	93.484955      	93.41808       	95.59512       	93.437454      	91.66434       	95.67079       	94.50954       	92.90254       	93.415665      	94.00251       	94.827805      	93.31656       	91.51705       	94.94583       	94.87607       	93.34937       	94.84539       	96.78865       	94.40503       	94.924576      	97.55245       	97.89476       	97.16337       	98.20079       	98.63203       	97.97651       	98.04556       	
76.240555      	74.08285       	71.13148       	73.921646      	73.68001       	71.03285       	74.12812       	89.65719       	100.77245      	101.604965     	105.129684     	102.70678      	102.10266      	102.625015     	104.974815     	105.38949      	104.12987      	102.81246      	106.92937      	106.258354     	103.96382      	106.82514      	110.338875     	109.39639      	108.40714      	111.1657       	114.5076       	115.65262      	116.05241      	121.063324     	121.62056      	103.035164     	92.3882        	87.57022       	80.32848       	77.87934       	80.93902       	82.46777       	79.515755      	79.669815      	81.288666      	80.40858       	78.751945      	78.54392       	79.341415      	77.99791       	75.21959       	74.18523       	72.38726       	70.00853       	70.46955       	76.027725      	74.62919       	73.620636      	75.899635      	74.19369       	74.38931       	75.213524      	78.90194       	79.08788       	79.979416      	78.84464       	81.73902       	88.53983       	86.88341       	95.03448       	98.19703       	94.006256      	94.21614       	96.49632       	98.29806       	95.52379       	96.71049       	97.183136      	95.37381       	95.49439       	94.933464      	94.67939       	95.82933       	94.16047       	94.90457       	97.45626       	93.11194       	94.01867       	95.88745       	93.59146       	91.20975       	95.326836      	95.67037       	92.9216        	94.43277       	94.88533       	95.357864      	96.470146      	96.30033       	95.75228       	97.70057       	98.64894       	98.33316       	97.47484       	
76.78415       	74.582344      	72.677895      	71.31061       	74.0799        	73.76463       	71.57726       	85.52005       	99.51553       	100.613716     	101.41054      	103.04454      	102.809906     	101.95932      	103.34077      	102.84118      	101.47584      	103.49437      	105.04708      	102.74519      	103.48377      	107.301544     	106.9869       	106.44301      	106.39898      	110.522736     	113.302605     	110.154045     	112.58434      	119.604355     	121.61199      	101.986115     	93.457184      	88.490326      	80.557785      	77.30816       	78.87919       	79.96779       	79.83172       	79.31023       	78.6534        	76.75629       	75.080246      	75.627426      	76.74031       	75.606735      	73.45671       	72.928665      	77.971886      	77.36933       	73.51167       	76.76582       	78.49563       	75.789474      	77.41233       	80.26307       	81.951546      	84.89556       	88.81727       	90.6772        	94.79327       	95.80228       	96.7485        	96.68062       	94.36099       	95.25171       	97.53492       	95.92105       	93.75635       	95.83223       	97.24499       	95.27428       	94.34268       	95.73298       	95.92461       	94.00948       	94.96399       	95.43221       	96.03172       	93.960526      	94.70527       	94.6816        	93.382675      	92.07575       	95.55104       	97.19451       	91.968575      	93.21469       	95.15992       	94.796524      	95.30225       	94.76402       	94.08504       	94.050446      	95.635544      	95.66843       	96.22531       	95.64596       	95.140816      	95.09688       	
77.372406      	73.32854       	73.01228       	70.90761       	70.83105       	67.19915       	69.341125      	78.97301       	94.93271       	99.509346      	100.83576      	101.054886     	99.84945       	100.93619      	102.04598      	99.72294       	100.48831      	103.48988      	100.44606      	100.6055       	103.850716     	105.71221      	102.93453      	104.37698      	107.37973      	106.36459      	106.99531      	107.84016      	109.428764     	111.0742       	116.62025      	104.04857      	89.34994       	82.675285      	77.294785      	77.2417        	77.08864       	72.92475       	73.25957       	75.912         	76.72603       	74.39691       	74.70812       	73.68556       	72.37855       	73.9389        	77.14598       	77.06678       	78.97237       	73.528076      	77.30102       	81.30489       	82.5536        	82.047615      	87.290985      	89.63771       	92.45743       	96.26568       	98.95532       	98.58249       	95.858536      	97.51854       	97.940475      	93.94251       	91.95354       	94.51769       	96.11581       	93.96036       	91.98532       	97.275505      	97.53758       	94.105415      	93.09621       	96.62805       	93.45843       	90.81571       	95.62687       	96.880775      	92.5435        	91.909225      	95.27093       	97.22912       	93.92403       	92.74869       	95.41148       	96.27387       	91.29094       	94.67281       	98.086075      	93.70141       	91.13606       	95.41845       	96.64021       	93.11101       	94.251816      	97.81896       	97.899284      	97.843666      	96.719154      	94.537186      	
76.115486      	74.59266       	74.05611       	68.38796       	65.433105      	66.46037       	63.973568      	72.1056        	92.32651       	101.00679      	102.946304     	99.635254      	100.41596      	106.931725     	104.093925     	99.47435       	99.26987       	100.06226      	98.67674       	98.58146       	103.271034     	102.43322      	99.31375       	102.39975      	103.630295     	102.78925      	102.54961      	106.21542      	107.42073      	107.16317      	109.06416      	101.54183      	90.958824      	82.69876       	78.643524      	79.87364       	78.93096       	69.68075       	71.69056       	72.19676       	69.69533       	70.753586      	78.186104      	72.21293       	70.37177       	72.02538       	76.728775      	79.10543       	76.0348        	79.02894       	85.51771       	87.9819        	96.10372       	98.32237       	96.79631       	95.4194        	95.943954      	96.61176       	96.30737       	96.14094       	95.22639       	95.59681       	95.75073       	93.860725      	93.717804      	94.94801       	92.68065       	93.614876      	97.26281       	94.12552       	94.2805        	97.05937       	94.78362       	93.59607       	94.082466      	94.50923       	95.0531        	92.31571       	91.051796      	94.545784      	95.098236      	93.03372       	94.30758       	95.33607       	95.14479       	93.998344      	93.230034      	96.99977       	93.85864       	94.57116       	95.5634        	97.37348       	94.18289       	95.44707       	101.073456     	101.237045     	97.29447       	95.330284      	95.77802       	96.22539       	
73.845985      	73.936165      	69.2835        	65.4751        	66.32506       	66.14588       	66.10393       	72.751945      	87.46479       	96.35181       	95.595894      	99.523766      	98.96501       	96.3464        	96.2047        	98.03129       	97.54639       	96.26859       	97.47182       	99.64664       	97.34518       	95.664116      	99.367325      	101.69194      	98.480225      	96.53523       	101.181        	104.718575     	101.61391      	104.98021      	108.08751      	106.27788      	91.34115       	89.105095      	85.98112       	79.372116      	78.08861       	76.932396      	75.15371       	72.20057       	74.39665       	78.6461        	81.24407       	76.48489       	77.66019       	85.56794       	86.555534      	90.93525       	97.85559       	99.238976      	93.44111       	94.07988       	98.97783       	96.14843       	92.871895      	94.743484      	97.479805      	95.27723       	92.45473       	94.71413       	95.89058       	93.94157       	93.01163       	98.36869       	96.87165       	95.30339       	96.16802       	97.06967       	94.34147       	94.66846       	97.96611       	96.04618       	93.37282       	91.57762       	95.744316      	94.97526       	91.66495       	92.6112        	93.59105       	91.97912       	94.29914       	94.008095      	93.30989       	93.701385      	93.5607        	93.55987       	94.08715       	92.03008       	96.177765      	98.76591       	95.17101       	92.85768       	94.62272       	94.18917       	93.28838       	95.35421       	95.9409        	96.31837       	96.54293       	94.884895      	
74.79815       	73.89704       	72.71401       	70.91881       	66.36766       	66.14268       	64.53282       	63.63068       	77.333305      	96.331184      	96.80037       	95.1779        	97.20195       	96.51861       	94.98192       	96.560715      	96.583374      	95.05364       	94.911705      	94.6706        	94.14802       	96.86286       	98.05594       	100.52055      	97.88807       	96.224434      	96.90114       	99.158485      	98.466866      	101.21789      	103.77295      	106.32963      	98.745766      	95.67475       	91.36103       	80.022514      	79.77538       	81.50174       	83.51668       	84.647705      	85.12371       	85.78918       	88.13956       	89.0787        	93.9122        	96.54262       	96.24101       	97.30566       	97.341484      	95.81623       	96.28101       	97.14845       	95.916466      	95.40784       	96.28055       	97.113075      	95.7588        	94.92025       	96.22968       	96.65872       	94.81385       	95.52018       	96.0219        	95.474594      	94.39994       	94.54839       	95.303185      	95.05881       	95.52266       	100.42282      	99.397575      	95.4637        	96.53218       	96.16617       	94.95129       	93.1586        	94.654106      	95.79926       	92.40817       	91.63282       	95.97745       	95.77638       	93.14324       	93.35763       	96.25048       	95.18566       	92.74959       	94.51905       	97.7183        	96.1013        	93.875694      	97.15948       	97.26831       	95.364395      	96.4498        	98.644615      	98.164764      	97.03972       	96.554886      	93.809845      	
75.92012       	70.97757       	69.93437       	71.8563        	68.31199       	61.96946       	65.32878       	68.080185      	72.73061       	87.342514      	96.507645      	96.73755       	92.84889       	93.35223       	97.69099       	95.31538       	92.844734      	94.63257       	95.90939       	92.3357        	91.58473       	95.169464      	95.43271       	93.291664      	93.13927       	96.35173       	95.143745      	94.91224       	95.12312       	97.12547       	98.17118       	98.6053        	101.690865     	102.20497      	91.26892       	85.66169       	87.27462       	87.48876       	89.480354      	94.43141       	98.50175       	95.97917       	94.11738       	96.159744      	97.12702       	94.46439       	93.8616        	96.73101       	95.22863       	92.29707       	95.606636      	96.26938       	94.54137       	92.27112       	95.057045      	97.54651       	95.251396      	93.24505       	96.17494       	96.05519       	93.56743       	94.5654        	97.02308       	96.80858       	94.98056       	95.15362       	95.28955       	92.72139       	91.64274       	94.9496        	95.621         	91.54552       	94.52595       	97.05058       	95.315414      	91.932915      	94.60697       	96.319214      	94.465576      	91.777916      	93.79391       	96.29605       	93.741615      	90.45595       	95.15921       	97.18438       	91.023445      	93.418816      	98.66517       	92.8719        	92.40963       	97.970024      	98.15508       	92.35322       	93.38246       	95.945244      	97.16358       	96.907036      	96.77583       	94.11929       	
75.49161       	74.65767       	71.61696       	68.170456      	68.53962       	70.220856      	63.430176      	65.58035       	75.3265        	87.391525      	93.80589       	95.20606       	95.32654       	93.64471       	91.90663       	93.85506       	97.70726       	96.76782       	91.63236       	93.41134       	97.31196       	92.555176      	93.41596       	95.108475      	92.679276      	92.53613       	96.21447       	94.49922       	91.82101       	94.97517       	96.0075        	95.63482       	96.74826       	94.75685       	95.95427       	96.9272        	93.9119        	94.586655      	98.464806      	95.60301       	93.27127       	96.72344       	97.68778       	94.346054      	95.89156       	96.651825      	97.54273       	94.471924      	93.639694      	98.01411       	99.95159       	92.81841       	92.658966      	99.79994       	94.93816       	91.45024       	96.26436       	97.574814      	93.81861       	94.57076       	95.10047       	95.704254      	94.261566      	93.09913       	95.38538       	94.945145      	91.52847       	95.07872       	94.90533       	90.509186      	91.313934      	96.04818       	96.47367       	91.921555      	92.92006       	98.92512       	95.190094      	89.42916       	93.54105       	96.55734       	91.625626      	89.633064      	94.86523       	95.281075      	90.85262       	91.65165       	96.92502       	94.76301       	91.04996       	95.46151       	96.85231       	92.63051       	90.45964       	95.00445       	96.878334      	94.73597       	94.87746       	96.817154      	98.362114      	97.801025      	
70.32435       	75.22456       	68.29569       	65.319115      	69.987236      	66.6255        	60.28072       	60.070053      	66.119865      	78.60396       	88.872         	94.619064      	96.93315       	92.41371       	90.361206      	95.46367       	95.52857       	89.05075       	89.92667       	93.72686       	93.18143       	92.47095       	91.66731       	92.846085      	91.43518       	92.93987       	92.46587       	91.76143       	94.004715      	93.57915       	95.370514      	92.96677       	93.5451        	95.89144       	96.27888       	93.28231       	92.95499       	94.37603       	94.18354       	93.4904        	93.12082       	93.57069       	94.51623       	93.60554       	94.32031       	94.51126       	93.48914       	94.092415      	95.26921       	93.97172       	92.19369       	94.556526      	96.366905      	91.0913        	92.250404      	95.004105      	94.40657       	91.893936      	92.132256      	93.6601        	95.28425       	93.16026       	92.31764       	95.338875      	94.13941       	91.41727       	94.090546      	93.09062       	90.02876       	91.07353       	94.5387        	93.09901       	93.6434        	95.09129       	95.412735      	93.41033       	90.89042       	92.66581       	95.32732       	94.48265       	89.779915      	92.12096       	93.45258       	90.954666      	92.08366       	94.97493       	91.80254       	91.115616      	93.58182       	92.08531       	92.50805       	91.21594       	90.87426       	94.009186      	95.221565      	93.12635       	92.85937       	96.05904       	97.99999       	95.09631       	
74.18714       	73.28432       	71.58053       	69.97508       	70.61426       	68.69533       	65.05203       	62.42839       	64.68969       	73.95621       	88.61372       	96.41081       	93.695915      	91.98413       	94.99035       	94.07101       	92.24712       	94.81339       	95.12342       	93.149826      	92.42409       	92.95668       	94.325325      	91.82356       	91.90247       	92.845245      	94.59388       	94.19803       	90.515976      	93.43704       	95.33188       	92.460785      	92.64567       	94.588         	95.91061       	92.93321       	93.422165      	96.46839       	94.547325      	92.12666       	95.26964       	95.97396       	93.50406       	93.427376      	94.999374      	94.00248       	94.18452       	92.467415      	93.37259       	94.58118       	92.14514       	92.966965      	92.84001       	93.05159       	94.76063       	95.02095       	91.974365      	92.92738       	94.004654      	92.81495       	93.071205      	92.15846       	93.779144      	95.214066      	93.35132       	92.44477       	94.0392        	92.31603       	90.63648       	93.281586      	92.30827       	90.711685      	92.79465       	94.74002       	92.786896      	90.99714       	93.05638       	93.12474       	92.096         	91.94221       	93.80737       	94.756516      	91.27066       	92.91236       	95.65461       	93.66508       	92.016426      	94.93065       	93.96213       	90.91391       	91.663315      	95.65909       	94.196396      	92.628265      	94.73858       	97.996284      	97.99352       	96.69036       	95.11816       	92.56029       	
74.90823       	74.29453       	72.45998       	67.77742       	69.80675       	67.879395      	62.40149       	63.802654      	67.28603       	73.3981        	87.11296       	95.91942       	96.748955      	94.63273       	94.178925      	94.745766      	96.22515       	93.7765        	92.623215      	94.39814       	95.98059       	93.027534      	93.66489       	93.9815        	94.292         	93.25476       	94.60545       	94.19152       	94.67887       	94.448235      	93.51075       	94.70367       	96.85111       	94.79381       	94.788414      	95.14258       	92.40955       	94.04803       	96.53357       	94.57189       	93.2553        	95.90565       	96.13142       	94.37191       	94.35788       	94.78454       	95.453445      	93.54151       	92.57005       	95.53316       	96.2917        	93.58789       	94.04505       	96.47686       	93.97172       	95.01          	93.743286      	93.793686      	93.68684       	94.64099       	94.619576      	94.41686       	94.5341        	94.40702       	97.069595      	95.28012       	93.396805      	94.770905      	93.68257       	92.51994       	92.971596      	94.03153       	94.59497       	94.84117       	93.82482       	94.5732        	97.32336       	94.758194      	92.67724       	97.64324       	95.080574      	92.70108       	94.26315       	97.409775      	94.266         	95.11484       	94.33272       	94.24186       	94.70378       	94.70726       	95.77328       	94.983765      	92.72545       	92.07435       	95.828445      	97.49726       	94.64491       	93.28145       	93.56578       	93.430405      	
72.89112       	74.956894      	72.23753       	68.85485       	70.18485       	71.13107       	69.193596      	68.97527       	67.16033       	70.975845      	83.31393       	94.68957       	95.15055       	95.007195      	92.65718       	94.71439       	95.510445      	92.73152       	90.97006       	95.56893       	96.05065       	92.55378       	92.01566       	96.22963       	93.79166       	92.31113       	94.43812       	96.041336      	93.928535      	93.73255       	93.85088       	96.91467       	94.5612        	93.35159       	95.2106        	94.92334       	91.74805       	94.097336      	95.57494       	92.53758       	93.75125       	97.51219       	94.74532       	92.53545       	94.85376       	95.63931       	94.53024       	94.88151       	94.54545       	96.04318       	94.49117       	93.096         	94.92821       	96.90243       	92.94952       	92.60922       	95.118286      	94.84152       	93.068726      	94.7981        	95.25322       	94.49763       	93.60385       	94.67578       	94.60019       	93.46275       	93.148476      	93.998116      	93.94377       	91.6419        	93.97861       	95.51493       	92.53053       	91.085724      	94.05997       	96.88778       	93.26149       	91.30998       	95.39782       	95.10434       	91.79556       	94.06027       	94.93576       	93.676796      	91.66127       	95.01355       	95.124596      	93.65953       	91.2269        	93.56727       	93.795685      	92.13954       	92.86014       	95.777115      	95.368164      	93.80341       	94.30123       	95.52649       	96.70021       	97.063774      	
74.99152       	73.78003       	73.99774       	72.732124      	71.37733       	73.732185      	73.089096      	74.60065       	76.19998       	78.34985       	88.951         	95.11929       	93.5385        	94.24068       	95.933685      	91.88675       	92.84054       	96.969         	93.322235      	90.11744       	95.528656      	99.04054       	93.53207       	93.49403       	94.28516       	95.22777       	92.11917       	92.107         	96.20684       	94.04949       	89.98714       	91.788246      	95.97487       	92.921555      	94.56319       	97.290474      	96.13695       	91.958916      	93.2328        	95.30314       	95.08841       	94.12438       	95.51956       	96.3934        	93.27839       	91.57899       	95.403404      	96.21381       	94.26428       	93.309944      	97.28633       	95.38702       	92.06351       	92.477455      	96.35314       	93.68912       	90.202675      	91.81369       	95.95726       	93.184525      	90.29715       	94.60615       	95.744385      	91.58398       	91.447136      	96.397095      	94.531364      	89.51485       	92.53254       	94.78057       	91.21395       	90.84366       	94.86598       	94.032715      	91.02504       	91.99154       	94.90984       	94.505875      	91.16263       	91.90962       	96.18171       	91.04295       	88.64261       	92.18134       	92.743416      	91.84356       	91.61529       	91.824776      	92.74953       	92.03859       	91.892654      	89.90259       	90.98898       	92.48131       	92.24633       	93.07454       	92.07711       	91.11612       	91.483604      	92.67067       	
76.09146       	80.1352        	77.12532       	74.25719       	77.29381       	76.33287       	79.71349       	85.48703       	84.73791       	89.26555       	98.21986       	93.87975       	93.34785       	96.62425       	93.45212       	93.739105      	93.80534       	92.98921       	95.67796       	93.99833       	91.941315      	94.84936       	96.07962       	93.915565      	93.93548       	95.54243       	93.78989       	93.47864       	96.10857       	94.166595      	94.5946        	95.10961       	95.16463       	95.30831       	93.910225      	95.10414       	97.70926       	93.2546        	91.68478       	94.34248       	97.383354      	94.53432       	91.27999       	93.65766       	93.90414       	94.91211       	94.27174       	93.42746       	94.58118       	94.90595       	92.68985       	92.37089       	93.52409       	93.47877       	93.34447       	94.42242       	93.70239       	93.77455       	93.51207       	93.55448       	91.925255      	91.44743       	92.43147       	94.1624        	93.15738       	91.87251       	93.40653       	93.71402       	92.10876       	89.34643       	92.93031       	91.66611       	90.608604      	93.61402       	94.41134       	92.362885      	92.24572       	93.778534      	92.30317       	91.07514       	92.04065       	92.12784       	91.45938       	89.77443       	91.416756      	92.35015       	90.7351        	91.669205      	92.18132       	90.43038       	89.83557       	91.09455       	92.9101        	91.29599       	90.54796       	92.06922       	93.00322       	93.70618       	93.0151        	92.48101       	
82.02266       	80.51106       	77.41794       	83.19587       	87.66647       	90.37346       	95.02238       	96.05754       	96.84724       	95.12899       	93.62294       	96.31506       	97.16436       	94.2044        	92.39505       	96.41981       	96.356514      	92.87948       	95.83725       	96.38618       	92.606575      	93.85539       	94.81816       	94.4572        	95.06987       	95.139694      	94.61555       	94.67231       	94.387505      	93.57219       	93.933525      	93.93937       	95.51709       	95.34602       	94.770065      	95.65721       	98.08192       	94.3016        	91.478485      	94.78494       	94.737015      	92.76921       	93.102715      	96.1195        	95.07525       	93.52775       	93.51322       	95.79842       	95.2817        	92.52184       	95.0649        	95.99394       	94.1971        	94.38805       	96.38136       	94.345535      	91.62338       	95.643845      	96.06844       	91.30514       	93.84602       	97.050446      	94.822014      	94.16896       	96.662315      	95.5404        	92.85814       	90.57864       	94.190414      	94.68546       	92.438034      	90.9019        	93.323555      	93.21639       	92.441055      	94.38856       	93.80486       	92.320564      	91.34044       	92.14827       	92.59416       	93.33721       	93.49142       	92.77699       	93.06714       	93.28525       	92.38494       	93.99859       	92.57225       	91.90892       	94.868034      	92.85365       	91.14497       	91.218315      	92.56973       	93.28395       	92.47861       	92.14856       	92.76905       	92.49222       	
82.85908       	92.59223       	92.899826      	96.43428       	98.44132       	97.89438       	98.59492       	95.03564       	97.31282       	97.67239       	93.87141       	93.973236      	98.47252       	95.47372       	92.55144       	97.227         	96.50884       	91.12678       	94.981186      	98.15503       	93.504074      	91.91652       	95.26273       	97.231865      	94.52801       	92.49461       	96.414604      	96.279175      	91.72232       	93.275055      	97.20401       	95.343124      	92.560425      	95.27246       	97.94982       	95.010345      	93.04241       	96.5674        	95.61243       	92.73512       	93.27148       	97.65575       	95.59105       	92.43617       	95.1362        	96.925705      	93.267204      	92.757935      	97.73242       	96.6499        	90.85021       	94.12381       	97.69626       	94.942856      	93.08514       	94.52556       	96.239105      	93.21498       	91.20703       	92.5031        	93.04173       	93.671196      	94.52848       	93.11171       	92.14879       	92.66801       	93.7603        	92.50737       	91.60983       	94.95576       	94.22072       	91.4606        	92.91169       	95.07096       	93.51185       	92.319664      	94.10267       	94.595825      	94.008415      	94.01457       	95.707016      	94.47818       	91.461426      	93.283134      	94.18068       	91.563446      	91.048256      	95.32247       	95.00663       	92.91536       	91.71385       	93.54717       	94.47262       	92.8528        	94.513794      	96.02558       	95.33173       	94.42775       	92.99996       	93.27886       	
97.49666       	96.29447       	98.89494       	94.42561       	93.68469       	96.713875      	95.62935       	94.01773       	95.63073       	96.485306      	95.241104      	96.38178       	97.3474        	95.1581        	92.148605      	93.224075      	95.92613       	95.89416       	92.80289       	92.71056       	96.558525      	94.22946       	91.82606       	95.85771       	96.116615      	93.51017       	93.377975      	97.512825      	95.7425        	92.61202       	93.26195       	95.837715      	95.38554       	92.70682       	93.52524       	97.59748       	96.74345       	92.384766      	94.84421       	94.04232       	92.89669       	94.75734       	94.71191       	94.600334      	94.66764       	93.28986       	94.16586       	94.23536       	92.42266       	95.43985       	96.08583       	92.98605       	92.31883       	95.50919       	95.44396       	92.22387       	93.15451       	94.90079       	93.77535       	93.65528       	94.33431       	92.98722       	93.60213       	91.653404      	92.73132       	93.92793       	92.128586      	92.60079       	94.59701       	92.13576       	91.7119        	92.6642        	93.110306      	91.72326       	93.06408       	94.401566      	93.524864      	92.88445       	92.325195      	93.63859       	95.057625      	93.85125       	91.88675       	93.09576       	91.39281       	91.61447       	95.023964      	92.199814      	91.32768       	94.791245      	93.128174      	90.93228       	92.09493       	93.07174       	92.69564       	91.61915       	91.09181       	92.820694      	92.45726       	93.435425      	
94.78514       	95.37284       	96.29173       	96.380325      	94.85832       	95.06174       	96.15077       	93.8186        	92.75736       	96.76509       	95.78879       	93.18257       	94.84352       	96.37125       	95.43407       	92.8888        	92.94116       	96.067         	95.06522       	92.41075       	93.57985       	95.47301       	93.017075      	92.596565      	93.96181       	96.49482       	91.16277       	91.77913       	95.68196       	93.20239       	92.30356       	95.44043       	94.541885      	92.2564        	93.79561       	95.54469       	94.21374       	91.96553       	92.23736       	93.273964      	93.860016      	92.29009       	93.12983       	94.42732       	91.8247        	92.270966      	94.97974       	93.01285       	90.42073       	94.52934       	96.60116       	92.42459       	92.13276       	95.17669       	93.425705      	90.85804       	91.66409       	94.11054       	93.30949       	91.89177       	91.98657       	93.32702       	90.44804       	91.18672       	94.21875       	94.18312       	90.110825      	91.79744       	93.21106       	92.674484      	91.317635      	91.50758       	93.48029       	93.45622       	91.69331       	92.88481       	95.98612       	92.40453       	91.25951       	93.09321       	92.85383       	90.10009       	90.009926      	94.52014       	93.19174       	90.81158       	92.66086       	95.06906       	91.757805      	89.63304       	93.32144       	93.530685      	92.21577       	92.60461       	94.371376      	96.46753       	95.47966       	95.4257        	96.04068       	96.05509       	
95.664116      	92.77516       	95.01073       	98.088264      	95.58952       	91.59497       	94.283455      	94.62961       	93.07063       	94.04687       	95.28511       	94.309616      	94.8239        	92.865364      	94.68523       	93.511826      	92.48253       	94.36503       	94.67606       	91.252686      	91.51981       	94.44278       	93.81943       	92.2921        	94.845184      	94.68538       	93.48673       	92.23385       	93.61046       	93.5041        	93.832436      	93.33374       	94.353165      	93.8569        	92.28803       	95.04594       	95.9503        	92.695786      	91.69614       	94.66647       	96.30474       	91.231636      	96.992096      	93.93934       	87.43883       	87.971         	92.17236       	93.30804       	92.84466       	92.864365      	92.33804       	93.31246       	91.94473       	94.060394      	95.44258       	92.8333        	90.521904      	93.97266       	93.44115       	90.09366       	92.24437       	92.83698       	93.70473       	94.256035      	91.83333       	91.924965      	94.268684      	91.84704       	90.689095      	93.103355      	91.81009       	90.953285      	93.87865       	91.45661       	90.52145       	95.97738       	94.33024       	91.59732       	93.79504       	92.809494      	93.30297       	94.505615      	91.65397       	92.56864       	94.77225       	92.92532       	92.13801       	93.79187       	93.38924       	90.68365       	92.43731       	93.694214      	93.631676      	95.16635       	95.42858       	96.02018       	96.3905        	97.97661       	93.04284       	82.81607       	
94.680405      	95.94295       	95.55814       	94.67451       	94.26655       	95.23583       	95.666306      	94.709404      	93.657974      	94.80636       	95.36976       	94.95525       	93.588875      	94.03909       	95.242516      	94.396065      	95.42334       	94.87781       	93.88765       	94.66307       	95.1955        	95.59139       	93.51142       	92.6658        	94.2548        	95.25953       	93.51815       	94.47484       	95.07162       	95.03344       	93.47716       	93.38146       	94.27376       	94.89843       	94.15502       	94.17477       	95.31166       	95.28275       	95.16394       	97.3076        	98.85845       	94.75507       	99.229576      	95.95436       	91.37599       	93.3245        	96.407524      	94.988144      	94.4155        	92.15519       	93.99616       	95.616104      	94.426094      	94.41448       	95.861176      	94.14156       	92.48827       	95.099594      	95.32323       	92.85803       	92.64851       	94.99074       	93.998535      	91.18328       	93.34331       	94.92239       	92.63709       	90.969795      	95.23376       	94.75089       	90.95489       	91.147064      	94.97046       	94.71396       	90.63672       	93.85465       	99.01385       	94.456436      	90.35665       	98.81318       	96.763176      	92.14397       	92.237915      	95.60278       	94.7889        	92.262886      	93.97685       	97.89859       	94.3558        	92.35821       	94.43505       	96.84252       	93.10144       	93.39222       	98.104385      	99.99677       	98.00552       	93.46739       	81.16084       	73.00847       	
99.38057       	95.28899       	99.77583       	96.95888       	93.34159       	94.70056       	95.91325       	96.597946      	92.36767       	93.13866       	97.93841       	93.816986      	90.83577       	97.24178       	98.08283       	92.808876      	93.32177       	98.7776        	95.05081       	92.78659       	94.236435      	97.762695      	94.35441       	90.82223       	96.44104       	96.42695       	91.174774      	93.2296        	98.052704      	94.69831       	90.45162       	94.11474       	95.27459       	94.87419       	94.38014       	93.55205       	96.0618        	96.2383        	92.413765      	93.573906      	95.09098       	91.61084       	93.707954      	96.12672       	92.48361       	91.83581       	95.36467       	95.17929       	93.28101       	93.318634      	94.87194       	96.57772       	95.04383       	92.62352       	94.273285      	96.406815      	91.20814       	92.85995       	96.65747       	93.23461       	92.8448        	95.79223       	94.45666       	93.31377       	93.78427       	95.60147       	96.24953       	93.04044       	91.72243       	97.53683       	95.57842       	90.43949       	93.42784       	96.36929       	94.53109       	93.673935      	97.90808       	95.47082       	94.72754       	97.46074       	95.589836      	94.77492       	95.16949       	94.71423       	97.12121       	96.829704      	93.62985       	96.38763       	99.55139       	94.15653       	93.785515      	98.98947       	96.89869       	94.993935      	98.08447       	99.74775       	101.017654     	98.17333       	87.2774        	75.23286       	
94.400764      	95.01976       	94.17215       	97.13612       	97.77785       	95.05896       	94.31795       	95.471436      	93.92152       	93.05912       	93.17854       	93.37721       	94.9997        	96.58764       	94.51509       	93.99694       	95.33094       	93.763336      	93.71159       	95.86462       	95.48382       	92.15297       	93.854454      	94.83784       	93.85115       	93.62537       	96.05852       	93.15453       	91.78354       	94.68666       	96.521034      	94.663376      	94.340645      	93.333015      	94.07529       	95.04024       	94.45844       	96.83119       	95.588005      	91.14453       	93.59054       	95.657074      	92.251335      	92.27699       	96.54001       	94.140396      	92.776665      	96.042046      	95.35686       	95.728165      	93.49459       	96.51048       	94.429886      	91.21983       	92.17756       	95.97522       	95.053986      	90.51877       	95.18928       	96.32088       	92.77339       	92.759735      	95.467026      	94.26281       	91.81773       	95.567795      	97.82295       	93.16617       	91.44101       	95.126656      	96.903656      	93.69893       	92.05319       	97.04681       	96.74611       	92.399605      	92.87404       	96.21705       	95.46929       	92.97128       	94.733185      	97.19227       	94.86361       	93.2598        	95.294075      	96.25505       	93.81937       	94.42957       	96.633995      	94.14491       	92.32344       	95.28179       	98.41826       	97.091805      	94.476524      	97.11056       	102.25799      	101.65568      	93.82814       	81.17003       	
93.61434       	97.05104       	96.20016       	94.36942       	93.90461       	94.318886      	94.02365       	93.33696       	94.154594      	93.82228       	93.023155      	93.55415       	97.652534      	94.73288       	91.12239       	93.413155      	97.230354      	94.576744      	92.41324       	96.51386       	95.957535      	92.39391       	93.23427       	94.690216      	94.60881       	92.13687       	92.30672       	95.759445      	95.39514       	91.8833        	93.26662       	97.72214       	92.21012       	90.88575       	95.159744      	95.53942       	91.54582       	92.30998       	95.85632       	95.86626       	91.46443       	91.07653       	95.303825      	93.37072       	90.66965       	93.23244       	96.09212       	91.48122       	91.284546      	96.205795      	94.78035       	92.02868       	92.530205      	96.65198       	93.32822       	90.514046      	94.72621       	97.02524       	92.41904       	91.585175      	95.245224      	96.42956       	92.34345       	90.65587       	97.06829       	95.66473       	90.49916       	95.05957       	96.440765      	93.66324       	93.99598       	98.22697       	94.74777       	90.73173       	92.80823       	96.64753       	96.95407       	92.062485      	92.69971       	96.19022       	96.39848       	92.906654      	94.85249       	95.53626       	94.13526       	94.99203       	96.689575      	97.13147       	94.73339       	95.10756       	96.86158       	96.819565      	97.047714      	95.26884       	97.19222       	99.35066       	99.744095      	98.71627       	93.65435       	83.53939       	
94.31027       	95.201         	96.64275       	94.59052       	93.96571       	95.58112       	95.163925      	94.57989       	94.11853       	92.78223       	93.7574        	93.67977       	92.96379       	95.019165      	94.47269       	93.263565      	93.33961       	93.59916       	92.10053       	93.12248       	94.77253       	94.686844      	92.61889       	94.41118       	94.10482       	93.51002       	93.14376       	93.24169       	93.11784       	93.771194      	95.40781       	94.136734      	92.9705        	93.06255       	94.27274       	94.40768       	93.30481       	94.4102        	95.677055      	94.08924       	92.48166       	92.810356      	92.28056       	91.63087       	94.289474      	94.81189       	96.34272       	94.47416       	93.0693        	93.82096       	92.612434      	93.17961       	93.61535       	93.58146       	92.55852       	93.37979       	93.841934      	92.663574      	93.30623       	94.07101       	92.39429       	91.01608       	92.86304       	95.21398       	93.42379       	92.10601       	95.16863       	96.148674      	94.85616       	91.75997       	94.86503       	95.373955      	91.403366      	91.41822       	94.84347       	95.84246       	92.76457       	94.39001       	95.74638       	93.88365       	92.83387       	95.11242       	93.85451       	91.49069       	93.45968       	96.2626        	94.796135      	92.94786       	94.953354      	98.03456       	94.82625       	92.03525       	95.0252        	99.05157       	97.32472       	95.92452       	99.18981       	101.326744     	95.18107       	86.67542       	
93.99261       	94.0086        	95.11857       	94.48197       	93.27699       	92.2945        	94.47681       	95.6372        	93.74588       	93.04848       	94.80065       	94.49694       	94.59696       	97.27038       	95.76838       	92.99016       	95.08847       	97.10611       	94.7716        	93.48261       	95.69274       	97.56311       	94.15011       	93.128296      	96.37898       	95.650894      	93.500824      	92.40578       	95.91938       	95.70228       	93.48054       	95.066666      	95.37366       	92.76794       	93.21354       	95.507744      	95.417755      	93.2181        	94.8946        	96.429214      	94.63588       	92.06824       	94.32868       	97.32944       	94.011314      	92.53883       	95.86038       	97.25919       	93.08133       	93.13404       	96.41617       	97.091705      	92.75337       	93.1671        	97.78514       	96.29748       	93.32034       	96.33895       	99.1003        	94.83052       	94.92891       	99.582954      	97.57108       	94.6897        	96.25461       	99.08772       	98.7507        	96.11341       	98.77657       	102.99989      	102.586105     	87.39601       	78.981094      	76.820145      	77.755684      	82.11169       	86.892044      	91.94707       	94.08744       	95.49262       	94.38316       	94.07663       	94.35999       	95.23891       	96.97897       	96.27462       	93.49871       	93.879585      	96.541756      	95.51122       	94.835045      	96.902824      	95.22754       	95.48239       	97.00579       	98.03027       	98.12825       	100.94628      	96.7692        	89.83717       	
93.82063       	93.9104        	96.28849       	94.57963       	92.705284      	93.15535       	95.342804      	94.95284       	93.42412       	93.78228       	95.14869       	93.63448       	93.08149       	96.25912       	95.175705      	95.51294       	95.211334      	97.648796      	95.74972       	94.68366       	95.56629       	95.96277       	94.9449        	94.42426       	96.65321       	96.22106       	94.90589       	95.046265      	97.27525       	95.21883       	94.57866       	95.95052       	97.6526        	95.3837        	95.617355      	99.0608        	98.502304      	95.57617       	97.89648       	100.01062      	96.53343       	94.37733       	98.16164       	98.82795       	96.325874      	97.97514       	99.318375      	99.5867        	99.0086        	98.64011       	100.78226      	99.649414      	97.986084      	99.96406       	103.336716     	100.253        	100.05758      	102.13553      	101.68446      	100.683235     	103.85075      	105.95543      	104.7703       	105.56642      	110.14188      	100.37977      	89.954094      	89.97218       	86.25884       	77.41444       	75.78121       	71.64121       	64.65882       	61.26872       	58.841         	60.05853       	62.977905      	82.98858       	97.29042       	96.07799       	94.5629        	96.8045        	96.82088       	94.892204      	96.06068       	97.362335      	97.100784      	95.56166       	95.33361       	97.04366       	97.07909       	94.31965       	95.45216       	98.0206        	97.22768       	97.35079       	99.8372        	104.79939      	104.08985      	97.94905       	
95.928474      	92.80374       	94.37924       	95.06658       	93.69648       	94.65901       	94.727776      	93.64143       	93.32179       	94.71471       	93.13866       	93.23918       	95.91849       	95.793686      	94.99509       	96.82144       	96.244804      	94.87147       	95.59244       	96.44787       	96.3319        	95.678505      	93.21906       	96.32418       	98.72538       	94.46613       	95.16767       	97.18262       	95.86591       	95.41619       	97.026665      	97.84855       	96.99008       	97.71854       	98.209564      	98.57832       	98.48499       	97.98421       	99.3238        	98.77308       	97.1848        	97.75627       	101.04781      	98.72079       	99.26358       	101.0596       	103.23524      	100.36735      	101.2061       	105.39444      	102.207016     	100.181595     	104.94203      	104.628586     	100.51941      	104.19767      	106.84791      	108.82343      	107.71362      	109.51891      	110.78398      	112.448494     	107.05596      	99.706505      	94.87988       	81.18834       	74.816055      	76.42976       	72.80659       	66.55561       	69.16531       	68.58745       	64.581         	58.88902       	56.902596      	56.94208       	55.368797      	72.80817       	96.890396      	96.12081       	91.74552       	95.06588       	100.84728      	94.631226      	92.71323       	97.0221        	100.209915     	94.21663       	92.20061       	97.27902       	98.52524       	94.738945      	92.79615       	101.435165     	103.65291      	96.65036       	97.8446        	103.68431      	107.37345      	103.38175      	
92.967804      	94.93277       	93.43549       	95.4073        	96.50272       	97.25772       	96.23726       	93.21931       	94.835396      	97.548256      	92.18213       	92.02321       	97.16246       	96.364876      	94.5773        	97.15648       	97.99492       	95.05306       	94.730865      	98.30238       	97.46221       	94.61821       	95.647224      	98.24238       	96.060234      	94.61447       	97.40473       	100.12716      	97.5599        	93.5335        	99.42378       	101.280975     	95.60076       	98.62218       	102.25964      	100.763756     	96.63929       	100.376595     	104.9976       	100.638176     	97.313995      	101.677864     	101.51649      	98.69511       	99.272         	104.40158      	105.15184      	101.95007      	102.76217      	109.48137      	105.85731      	100.614555     	104.228355     	108.35201      	109.91816      	115.12663      	116.44324      	114.3065       	104.10567      	93.57853       	91.727455      	90.51289       	83.73601       	77.65052       	75.1112        	72.25919       	71.89122       	72.493744      	70.36203       	67.96668       	70.24306       	67.24597       	66.16591       	63.583817      	61.961617      	62.441006      	63.557915      	73.808784      	91.54176       	96.218925      	94.18665       	95.29772       	96.34657       	95.235794      	95.114105      	96.49963       	96.01848       	96.395004      	95.12134       	93.72181       	96.33655       	98.664925      	95.39718       	95.288055      	99.48738       	100.61596      	100.461075     	100.79802      	102.525314     	102.35745      	
94.44432       	94.3947        	95.55162       	95.11043       	94.403656      	96.52799       	96.59761       	95.43694       	95.58594       	96.92796       	96.065056      	96.28874       	97.05627       	99.48581       	97.92136       	95.67587       	98.290276      	100.368195     	98.507454      	96.3555        	97.69332       	99.79449       	98.28985       	97.499985      	99.30651       	99.469536      	100.28228      	101.25138      	102.82901      	101.684494     	100.32262      	100.26431      	104.5258       	100.21312      	97.60238       	103.34331      	105.0862       	102.59135      	105.335335     	104.75814      	105.14726      	106.15445      	106.153336     	107.2279       	106.995735     	108.43651      	105.167244     	107.495895     	109.51411      	111.7473       	112.46111      	114.84587      	116.86035      	106.04497      	103.30486      	97.12245       	86.72409       	85.1222        	82.49116       	82.29773       	80.27364       	75.37151       	74.97546       	76.85152       	76.41562       	72.084915      	71.295334      	73.746506      	73.3224        	68.66989       	69.59051       	69.9013        	66.275955      	64.55087       	64.9771        	62.025066      	61.319458      	66.26626       	86.07893       	94.37322       	93.53413       	96.324295      	97.844444      	95.73396       	94.47717       	98.43481       	100.22594      	97.32087       	95.08732       	97.22984       	96.06665       	96.64523       	98.34622       	99.54562       	99.76416       	99.62207       	101.29517      	102.65552      	104.45135      	104.216324     	
95.212036      	97.06695       	94.74611       	95.92578       	97.35329       	94.55501       	94.07801       	96.51203       	98.759964      	97.58639       	95.56497       	96.21298       	99.20863       	98.51957       	96.01702       	100.93781      	101.23692      	96.945366      	97.33482       	99.9889        	98.89855       	99.31499       	99.087074      	100.48778      	100.1118       	100.14497      	101.424225     	102.18898      	101.27555      	102.10448      	104.99718      	102.37817      	102.894615     	106.12053      	105.693375     	105.242584     	105.96049      	108.44058      	110.020256     	109.77255      	108.541824     	110.76396      	111.57353      	108.35771      	113.40482      	118.277435     	113.77143      	117.030426     	124.08398      	118.67457      	108.08749      	98.41881       	91.0937        	86.4906        	85.833374      	82.12558       	81.69862       	80.93555       	77.383286      	80.27226       	81.56056       	77.30824       	74.97067       	78.71771       	76.551544      	74.13771       	72.810745      	74.4726        	74.46927       	72.29093       	71.51161       	75.029106      	70.355736      	63.588223      	66.870674      	65.33          	66.37879       	73.69687       	85.09914       	95.55848       	93.574745      	97.474174      	100.208664     	96.59624       	92.749405      	96.703316      	100.81491      	96.12479       	95.392006      	101.72077      	101.30343      	97.61673       	97.030136      	104.881355     	102.85428      	100.24454      	103.85278      	105.17855      	103.68822      	103.45511      	
97.30404       	99.43115       	98.41207       	96.04788       	97.565186      	98.12565       	97.865166      	98.857475      	99.99608       	99.00089       	98.520454      	98.206825      	97.371826      	98.52277       	100.99075      	100.54485      	98.301544      	97.99246       	99.125015      	97.42082       	101.26474      	102.05961      	103.46907      	106.03971      	103.520706     	102.54466      	106.13831      	106.814415     	105.55248      	105.62206      	106.62239      	108.444824     	107.16312      	106.75207      	109.74219      	108.95544      	108.93092      	110.04798      	111.82239      	113.142296     	115.11824      	117.77741      	114.62658      	118.091415     	123.05582      	107.96864      	95.83236       	94.86701       	93.71955       	92.36972       	86.09649       	81.73607       	81.893745      	83.9547        	79.830315      	78.48492       	81.60559       	82.27082       	80.21927       	78.62298       	80.79222       	79.55851       	78.17525       	77.475395      	79.65828       	78.94336       	74.52365       	77.13916       	77.53146       	71.91301       	78.52288       	77.45772       	68.88662       	65.680374      	64.58615       	64.31359       	66.04012       	68.00531       	75.20619       	90.840164      	96.35251       	92.924835      	94.81532       	96.47684       	93.2534        	97.46211       	98.579834      	95.66835       	94.62157       	96.7787        	96.861084      	96.75937       	98.968796      	100.08623      	100.95341      	101.19853      	100.12292      	99.86329       	101.38655      	102.80974      	
96.184074      	97.530594      	96.6491        	97.58679       	97.547035      	96.372635      	98.762375      	97.94425       	97.186485      	98.93652       	97.17516       	98.78955       	100.32081      	98.82586       	99.377304      	103.83656      	101.491875     	100.43134      	101.54505      	103.73111      	103.23077      	101.74842      	103.232254     	105.60657      	105.320526     	104.07421      	106.17439      	106.93904      	105.89423      	108.54061      	110.540855     	108.68532      	108.84593      	112.96992      	113.49214      	112.22603      	113.02262      	114.04969      	116.12186      	117.79679      	124.458305     	116.90087      	103.870605     	98.663345      	93.972725      	87.90502       	83.222374      	84.41711       	84.337296      	83.80858       	82.88902       	84.39997       	81.39135       	84.27455       	82.83979       	81.86601       	82.443794      	82.189835      	81.453316      	80.83145       	79.81913       	80.09945       	78.87072       	78.30778       	76.967545      	78.78871       	79.00096       	76.2613        	74.120255      	75.30297       	76.229324      	72.641685      	68.74688       	70.40657       	69.13893       	66.33528       	62.37831       	64.69484       	75.74289       	90.04145       	99.30437       	98.740074      	98.31264       	100.25597      	100.58753      	97.17863       	97.38117       	99.15837       	99.47787       	98.8544        	98.938805      	100.086105     	101.250534     	101.20866      	101.13652      	103.38705      	104.42935      	104.60806      	102.59661      	102.22119      	
99.1925        	102.21463      	100.4124       	98.82244       	101.18913      	102.74243      	99.96082       	100.04788      	105.24936      	100.51429      	98.71292       	103.37807      	104.781624     	102.36712      	102.131966     	106.61638      	105.64849      	103.6201       	104.42911      	106.515434     	107.77023      	104.89452      	106.9316       	111.01264      	109.15589      	108.266464     	110.59724      	110.308945     	109.72791      	112.611725     	113.97095      	114.1923       	113.406494     	116.55468      	116.964386     	117.90486      	118.99063      	122.66016      	125.384895     	127.944466     	115.87424      	103.06827      	90.28909       	83.250656      	83.73218       	86.42022       	85.6419        	84.28271       	84.23645       	87.09272       	84.525955      	82.46366       	84.0794        	84.0712        	81.1021        	81.89066       	83.20307       	81.459015      	81.28434       	81.45306       	81.70128       	79.300835      	78.61503       	78.93205       	79.26026       	76.15808       	73.74044       	78.13918       	81.31832       	71.4321        	72.54791       	72.07328       	70.584114      	67.70498       	68.66647       	69.78195       	64.61291       	63.462223      	74.337685      	91.91765       	96.72325       	95.99892       	100.32503      	99.67211       	95.913086      	99.51546       	101.30892      	96.21294       	96.684166      	103.335686     	100.60604      	96.509315      	99.84486       	105.07408      	104.15917      	100.676285     	103.25183      	105.52143      	104.9669       	103.87508      	
96.87245       	98.67756       	98.43639       	99.99524       	101.50849      	99.16523       	98.03482       	98.800865      	100.52465      	98.495735      	99.38399       	102.708984     	102.24924      	104.617294     	102.39725      	106.41537      	108.44711      	103.20659      	101.54062      	106.95041      	106.239746     	104.459724     	107.46268      	109.856865     	107.88594      	108.919975     	110.96241      	111.383675     	111.04532      	110.36724      	113.14767      	115.66663      	115.989334     	112.82313      	118.70844      	120.4062       	117.95503      	122.0026       	128.52257      	117.23648      	101.40355      	93.904045      	85.856316      	83.514084      	84.806076      	87.61761       	85.89636       	82.051384      	83.57625       	88.09974       	85.428955      	81.86779       	87.31273       	88.30926       	80.36056       	82.79723       	87.53292       	88.770424      	82.42704       	83.35022       	83.78735       	81.84948       	78.58989       	80.68521       	81.94258       	78.46253       	76.40907       	77.0011        	75.59156       	74.64377       	75.97739       	76.0287        	70.86712       	68.564575      	69.211075      	66.79532       	70.71911       	69.48974       	77.88228       	90.526436      	97.45375       	97.44665       	99.31508       	100.35929      	100.38469      	99.367355      	100.25864      	101.545616     	99.737114      	99.30131       	101.103        	102.32536      	100.822296     	102.975945     	104.063225     	105.37521      	107.7542       	107.27894      	105.19543      	101.715385     	
96.378586      	98.5645        	95.61807       	96.5135        	99.642136      	98.170235      	96.00757       	99.337         	101.12887      	96.54762       	101.00778      	103.21403      	102.092026     	103.10346      	108.64104      	112.963715     	102.89365      	100.14357      	107.09467      	110.07626      	105.399254     	102.2422       	108.09602      	108.154106     	102.64078      	106.0382       	111.14006      	107.77376      	106.27729      	109.14969      	112.467804     	112.33976      	108.67583      	112.93415      	118.957886     	114.544876     	114.622894     	118.66185      	122.04546      	116.059235     	101.34425      	94.49051       	83.8776        	80.29464       	85.53555       	85.93971       	82.167435      	82.92833       	85.02896       	82.99027       	79.882675      	83.93912       	84.959435      	82.42738       	79.32552       	81.30706       	85.11556       	80.85678       	77.805145      	82.4184        	81.487175      	74.840485      	80.62962       	82.50096       	77.39014       	76.945656      	77.67488       	77.9316        	76.27874       	72.17796       	74.2117        	74.74759       	68.47651       	67.3255        	67.57094       	61.700382      	64.804794      	65.71777       	68.578415      	79.85584       	95.627556      	97.565636      	96.26415       	97.84303       	98.48781       	97.36126       	97.19767       	97.88073       	98.30472       	101.084305     	100.18987      	100.53371      	102.820694     	103.461914     	106.14608      	104.079155     	103.77921      	102.28517      	102.629395     	101.97436      	
100.6372       	98.59832       	101.52926      	101.11586      	99.1996        	101.39417      	100.47751      	100.58329      	100.84762      	102.667725     	101.97586      	100.95659      	100.8685       	103.85556      	105.20358      	102.85086      	103.68956      	104.94737      	105.51143      	103.215836     	106.049164     	107.32598      	104.45756      	107.93734      	109.320305     	106.66161      	106.97855      	108.261856     	111.68822      	110.58341      	108.91963      	110.83869      	114.47163      	112.42677      	111.7175       	116.744576     	118.05256      	115.20982      	121.69538      	125.649826     	106.81336      	95.79412       	90.83533       	88.58161       	85.14099       	82.607834      	85.2701        	89.234535      	86.48263       	84.00272       	90.720406      	91.813705      	90.852646      	89.82243       	88.72319       	81.82594       	80.06406       	86.39709       	86.89383       	82.213326      	82.12413       	85.30976       	83.2247        	79.74142       	82.43238       	80.790695      	77.62984       	79.20958       	79.916855      	76.80742       	74.42187       	75.47251       	76.413994      	72.54329       	68.7423        	70.690285      	68.48793       	62.550068      	67.29523       	81.22759       	94.061966      	98.87564       	98.542564      	99.55017       	99.619194      	97.19042       	98.10868       	100.80573      	100.45         	97.35997       	98.319916      	102.05694      	102.945206     	100.26275      	101.55238      	104.544395     	106.42533      	104.60699      	102.18824      	102.13023      	
97.17445       	96.18944       	98.444534      	97.72661       	96.69294       	96.1153        	100.43565      	100.45322      	95.91715       	97.78929       	99.67314       	98.82913       	97.36142       	98.585884      	101.85906      	102.15126      	100.62753      	101.69732      	103.649254     	102.87546      	102.57856      	104.84306      	105.40717      	103.76442      	105.07865      	108.10045      	105.12538      	106.11998      	107.98906      	109.33627      	109.59038      	109.10992      	113.10765      	115.59464      	111.9283       	112.43299      	118.71375      	118.51759      	118.539116     	125.792725     	117.96955      	103.077034     	94.44958       	89.11317       	85.893814      	84.70785       	83.1588        	84.92725       	86.2533        	84.296135      	85.62248       	87.54633       	84.943405      	83.35835       	85.76112       	86.04123       	83.30155       	82.393486      	86.2677        	84.09083       	81.22502       	80.91141       	84.22078       	85.96567       	80.18092       	78.21506       	78.543915      	79.06054       	79.031525      	78.41886       	77.961815      	74.81502       	74.55472       	72.09313       	69.519135      	68.65034       	67.133896      	66.26885       	64.73626       	72.42384       	89.09642       	99.014244      	98.05762       	98.06762       	98.15843       	98.595566      	98.95189       	103.298134     	101.03675      	96.745605      	98.28303       	100.512115     	99.50329       	98.92863       	100.58378      	102.383896     	103.6121       	103.69796      	100.8097       	99.68309       	
96.25155       	97.28517       	97.32919       	98.24875       	100.63065      	97.010864      	97.70553       	101.132095     	98.75262       	97.24477       	100.67789      	100.29988      	97.88884       	100.217545     	103.79726      	103.32235      	101.81723      	100.638565     	102.68363      	103.52538      	103.76572      	104.87401      	105.35564      	104.313644     	102.39639      	106.50518      	104.52161      	105.495834     	109.14047      	107.99029      	105.287735     	107.17357      	110.43477      	110.99958      	110.65451      	109.89302      	115.89339      	118.43631      	114.896645     	121.589386     	117.76472      	102.59167      	90.98221       	90.45675       	86.69109       	83.016525      	83.58259       	84.189384      	85.46373       	84.21866       	85.390816      	84.55385       	85.857834      	83.47911       	83.81273       	86.01489       	87.02709       	82.77892       	84.696365      	83.52972       	79.8518        	80.93908       	83.778435      	80.42282       	79.39821       	82.1418        	81.07414       	78.05701       	76.90279       	81.42863       	79.1967        	72.51038       	73.53165       	77.13664       	71.33929       	64.52751       	67.26303       	67.13985       	62.90823       	64.39488       	85.75443       	96.61696       	95.02702       	95.627205      	99.74517       	99.4158        	94.52222       	96.62293       	102.64983      	100.89584      	93.9612        	100.25971      	104.80586      	97.375374      	98.19487       	104.634735     	108.50949      	106.420815     	101.839264     	98.88725       	
