# www.neaspec.com
# Scan:	 	Whitelight Imaging
# Project:	 	20251007_PS
# Description:	 	
# Date:	 	10/07/2025 11:32:10
# Scanner Center Position (X, Y):	[µm]	49.99	50.01	 
# Rotation:	[°]	0	 	 
# Scan Area (X, Y, Z):	[µm]	5.000	5.000	0.000
# Pixel Area (X, Y, Z):	[px]	100	100	1
# Interferometer Center/Distance:	[µm]	0.000	0.000	 
# Averaging:	 	1	 	 
# Integration time:	[ms]	5	 	 
# Wavenumber Scaling:	 	1.000000	 	 
# Laser Source:	 	4.5-15 µm nano-FTIR laser
# Detector:	 	R
# Target Wavelength:	[µm]	7.502	 	 
# Demodulation Mode:	 	Fourier
# Tip Frequency:	[Hz]	241,340.500	 	 
# Tip Amplitude:	[mV]	45.700	 	 
# Tapping Amplitude:	[nm]	70.684	 	 
# Modulation Frequency:	[Hz]	0.000	 	 
# Modulation Amplitude:	[mV]	0.000	 	 
# Modulation Offset:	[mV]	0.000	 	 
# Setpoint:	[%]	79.75	 	 
# Regulator (P, I, D):	 	4.206850	8.625812	1.000000
# Tip Potential:	[mV]	0.000	 	 
# M1A Scaling:	[nm/V]	0.426	 	 
# M1A Cantilever Factor:	 	1,000	 	 
# Q-Factor:	 	487.4	 	 
# Version:	 	2.1.11536.0
95.28183       	94.14593       	93.34877       	93.48418       	94.72855       	94.23038       	93.94184       	94.58348       	94.24508       	94.058464      	94.33118       	93.7721        	93.45414       	93.53449       	94.88384       	93.49692       	95.13276       	93.84082       	93.986534      	94.42353       	92.36734       	94.11645       	90.47977       	93.12078       	94.566895      	92.95143       	91.66296       	91.46656       	92.024         	93.760635      	89.654976      	92.3734        	93.10695       	93.18327       	90.27028       	90.58224       	92.473145      	94.60945       	88.75098       	90.794136      	92.427155      	92.25919       	94.12581       	88.70198       	91.4962        	94.395584      	93.2515        	91.53368       	92.06802       	92.77071       	95.2131        	92.031525      	94.29222       	94.62366       	93.44968       	93.372444      	92.92342       	93.79126       	93.79131       	94.83296       	94.35603       	94.52703       	94.920784      	93.37221       	95.139404      	92.88516       	95.72696       	93.794975      	94.40956       	95.56828       	93.547134      	94.80022       	94.666306      	95.30049       	94.07344       	93.69775       	94.40886       	92.57183       	95.38569       	91.49346       	94.41597       	94.77171       	92.65194       	94.26554       	94.64344       	93.45817       	94.43645       	94.777885      	93.34964       	94.409004      	94.97083       	92.40697       	93.72169       	93.989746      	93.54709       	94.43619       	92.70849       	95.42313       	93.791916      	92.598885      	
93.833046      	93.93975       	93.732056      	93.59848       	94.10413       	93.57145       	94.17183       	94.132614      	93.45008       	94.53383       	92.699356      	95.48868       	94.995026      	94.138725      	94.717026      	92.6138        	93.36299       	91.20666       	91.84459       	94.74281       	91.30058       	92.38985       	92.57479       	92.15385       	89.90307       	91.54947       	92.15895       	92.2629        	88.33929       	89.19933       	92.18172       	92.795975      	91.851814      	89.09337       	89.2391        	91.8835        	93.78255       	88.002655      	90.052284      	90.81709       	92.127         	93.954475      	88.24862       	90.71834       	92.34797       	92.74769       	90.4807        	91.52135       	90.86239       	93.738075      	90.21687       	91.694664      	93.85822       	93.670395      	92.90517       	93.5682        	93.13136       	93.7816        	94.52705       	94.22076       	94.08464       	95.19775       	94.28964       	93.74267       	94.683685      	92.81009       	95.00988       	91.948524      	94.60605       	92.44426       	93.20363       	93.64551       	93.750206      	94.38245       	94.56021       	95.13331       	94.57337       	94.23365       	92.930016      	94.035995      	92.597626      	92.556114      	95.268745      	91.29932       	94.2793        	96.06642       	91.62281       	95.08592       	95.50099       	92.06764       	94.85702       	93.90932       	93.31148       	92.82291       	93.628815      	94.04994       	93.88953       	94.1762        	94.01008       	94.72738       	
93.99463       	94.14757       	94.28295       	94.40392       	93.91432       	92.47008       	93.99814       	94.30092       	93.5544        	93.28981       	94.50916       	94.99243       	95.12369       	95.16377       	93.68848       	94.053535      	93.94361       	93.41356       	92.87552       	93.5605        	93.662766      	92.6758        	92.14424       	92.69093       	93.99138       	89.92088       	92.59175       	93.57837       	92.256355      	89.856476      	89.934654      	92.44327       	93.25817       	89.40409       	90.47264       	91.6363        	93.4622        	94.68187       	90.56578       	91.01773       	91.95297       	94.79023       	89.779785      	93.15172       	92.121185      	92.11684       	91.1656        	90.79175       	93.981155      	95.86972       	92.5194        	94.016846      	93.6516        	93.59294       	93.098305      	93.78244       	94.36579       	93.635376      	94.38759       	93.902336      	94.78228       	94.19275       	94.22017       	93.75477       	93.235596      	94.323555      	93.37029       	93.29459       	93.97651       	94.103035      	94.6111        	95.195625      	93.859825      	94.751335      	94.66966       	94.58464       	94.813675      	95.279205      	95.17428       	93.749825      	93.84685       	94.26659       	94.133095      	92.8785        	94.42667       	93.471         	94.35292       	93.40435       	93.17797       	94.43434       	92.42711       	93.25365       	94.48694       	92.0641        	92.57087       	94.33629       	92.43114       	93.74212       	95.001595      	93.37297       	
95.17827       	94.325325      	93.75892       	93.49649       	94.33229       	94.99373       	93.83011       	92.98164       	93.85693       	94.03837       	92.97332       	93.5227        	93.986725      	92.9777        	93.98448       	93.3651        	93.136635      	93.04545       	94.00709       	91.20926       	92.524605      	94.87479       	92.37476       	94.751305      	92.78409       	92.23172       	92.43204       	92.12438       	94.16131       	89.351364      	91.87774       	93.75444       	93.3058        	89.67516       	90.47465       	91.93277       	92.97237       	93.59628       	90.10279       	92.01465       	94.610664      	94.74307       	92.28658       	92.34854       	93.63998       	96.443954      	91.49187       	93.895996      	95.57403       	94.47628       	93.372086      	93.023346      	93.83137       	93.588165      	94.046074      	94.48465       	94.66866       	95.91851       	94.06067       	95.52524       	95.77478       	94.891975      	96.3316        	94.26571       	96.459175      	93.95646       	95.93072       	96.90163       	93.95251       	95.64889       	94.8971        	95.71917       	96.65718       	95.54948       	96.3897        	95.90075       	95.84216       	95.77954       	95.090416      	95.66537       	94.19535       	95.084785      	94.63217       	93.89942       	94.03571       	94.35078       	92.984055      	94.15379       	93.817024      	93.04069       	93.56355       	93.89571       	93.66825       	93.87187       	94.1121        	94.23882       	94.44945       	94.60791       	94.512955      	93.33126       	
94.12369       	94.55476       	94.33676       	94.45594       	93.710724      	93.331825      	95.35669       	94.07826       	93.201996      	94.53362       	94.62773       	92.63931       	93.447235      	94.444954      	93.506386      	94.446945      	93.94767       	93.92702       	93.92806       	93.027466      	93.78039       	92.72872       	93.40276       	94.15714       	92.09278       	92.2854        	94.04989       	94.46127       	92.06612       	93.607925      	93.69161       	90.63925       	91.08819       	91.7096        	92.73255       	93.933624      	90.36331       	91.82698       	93.499596      	94.29381       	90.10322       	92.74719       	93.405365      	93.34089       	91.75992       	91.883514      	94.24948       	94.658516      	92.22652       	92.82996       	94.80069       	91.92286       	93.66244       	95.337776      	93.011566      	95.361725      	96.00811       	94.356575      	95.816154      	95.63123       	94.691826      	94.780876      	93.217316      	94.67089       	94.23546       	93.56225       	94.57301       	93.34111       	94.00795       	94.715126      	93.161934      	93.92956       	93.5828        	93.747055      	94.647675      	94.24891       	93.29981       	95.27232       	94.44797       	94.99179       	94.24007       	93.53844       	92.82231       	92.95183       	93.49549       	92.79705       	92.21662       	93.871124      	91.530266      	92.281235      	94.50755       	91.80679       	93.14235       	94.340546      	93.00257       	93.719154      	93.13119       	93.882286      	92.618484      	93.91679       	
94.248505      	92.71355       	92.07154       	92.469246      	94.0102        	94.08358       	92.540665      	93.23076       	94.49384       	93.48893       	92.87752       	94.23759       	94.03568       	93.364555      	93.40848       	93.07781       	93.34317       	94.081024      	92.43322       	94.50745       	92.0308        	94.37596       	93.195595      	93.15744       	93.48361       	92.73447       	92.435455      	92.75522       	92.462234      	91.10981       	92.39908       	92.580986      	90.553276      	89.48698       	91.44372       	93.264694      	92.97116       	91.17807       	90.71485       	90.40137       	90.31212       	89.40656       	93.65626       	94.58101       	92.455284      	93.46904       	92.168365      	93.21674       	91.49194       	93.60254       	95.24813       	92.535645      	94.28017       	93.85967       	92.937675      	92.7224        	94.81512       	91.24215       	93.35242       	95.57418       	91.61446       	95.231964      	94.12059       	94.1266        	94.746666      	93.285324      	95.36169       	93.81458       	95.28077       	95.302826      	94.42953       	95.35257       	94.55444       	95.7246        	94.78271       	95.420815      	94.7545        	94.7726        	95.68767       	93.96219       	96.316986      	93.601265      	95.76918       	93.266716      	93.137955      	93.121445      	92.17293       	95.191025      	91.59725       	93.35352       	95.958046      	92.57649       	95.18177       	94.7484        	93.93226       	93.75118       	93.56974       	94.33001       	93.555244      	93.627426      	
94.31657       	93.342964      	93.11967       	94.34004       	94.69791       	93.65567       	92.995605      	93.680016      	95.069145      	93.32298       	92.711075      	95.150986      	92.70276       	92.44101       	94.93971       	93.91744       	91.715096      	94.54875       	93.62291       	92.123276      	94.53326       	92.42151       	94.47508       	92.392784      	93.55713       	92.227455      	93.48677       	94.092026      	90.90675       	94.101395      	94.84778       	91.70855       	93.05527       	93.28023       	92.70013       	90.856445      	91.97514       	93.37298       	90.75337       	90.83997       	92.03807       	93.36036       	89.95032       	92.144806      	93.389565      	93.22737       	92.3922        	92.26796       	94.07143       	89.958725      	92.3539        	95.40201       	94.4477        	92.729454      	92.726524      	92.84343       	92.51838       	92.37292       	93.48644       	92.36833       	93.15182       	93.42097       	93.20861       	93.66298       	93.78129       	93.87436       	93.26448       	93.94383       	93.38207       	93.852715      	95.45181       	93.21983       	94.79986       	95.720695      	92.63492       	95.99871       	94.15702       	94.62418       	96.00819       	93.72609       	94.239944      	95.968185      	94.22181       	94.03124       	91.596054      	93.13402       	94.80382       	93.40915       	93.50553       	92.97522       	92.98968       	92.008736      	94.61287       	92.448746      	93.2006        	94.377556      	93.67569       	94.40495       	94.810104      	94.20715       	
94.58168       	93.76551       	93.905716      	94.315994      	94.16333       	95.23486       	94.77573       	93.871735      	94.71119       	94.90869       	93.93836       	94.75985       	95.05953       	94.06917       	93.97494       	95.347015      	93.584465      	92.7377        	95.134476      	93.357025      	95.375015      	92.617714      	94.06653       	93.675766      	92.74135       	94.50952       	92.823944      	93.12674       	93.11726       	92.56493       	93.324455      	92.43978       	93.65764       	94.13696       	91.762665      	92.53812       	94.34114       	95.16981       	91.2264        	93.95698       	92.75542       	92.79546       	91.83236       	92.38377       	95.53299       	91.36445       	95.66914       	95.2862        	93.235054      	93.89852       	92.37276       	94.17197       	91.90353       	93.84111       	96.440956      	91.84302       	94.96521       	94.65035       	93.63371       	94.0247        	95.33986       	93.339775      	94.883224      	95.73056       	95.15227       	94.82933       	93.70289       	95.39783       	94.055664      	93.07874       	95.68          	93.209015      	95.169464      	95.34654       	93.72994       	95.33443       	94.96068       	94.33995       	96.111626      	96.002266      	94.470505      	95.8841        	94.6519        	94.58435       	94.95657       	94.65898       	94.00354       	95.424644      	92.65119       	94.33182       	93.98485       	93.45809       	94.98431       	92.83571       	94.75839       	95.195435      	94.00089       	94.76576       	95.08679       	93.83902       	
94.16915       	94.95582       	95.07194       	93.824425      	92.93968       	93.82907       	94.63411       	92.47664       	93.056274      	93.943275      	93.114105      	93.23609       	93.4086        	93.24486       	93.145065      	92.326904      	92.108574      	92.692665      	91.829414      	91.74113       	92.82144       	92.83675       	91.99222       	93.908134      	91.56396       	93.62549       	91.52074       	93.008286      	93.60992       	92.49806       	93.58908       	92.18582       	92.188034      	92.331406      	90.06507       	90.58948       	92.49975       	93.51147       	90.9534        	92.54321       	91.68698       	91.76541       	90.99073       	91.02893       	94.36434       	90.16757       	92.94972       	94.05556       	91.3433        	93.158554      	92.56124       	93.156685      	91.92432       	92.229294      	93.19315       	94.29761       	91.93136       	93.07654       	94.405876      	94.765305      	92.99144       	93.77799       	94.423294      	94.64734       	93.56892       	93.651505      	93.073456      	94.39525       	93.26352       	93.52188       	93.764755      	93.024185      	94.325455      	93.87687       	94.55191       	95.45021       	94.05875       	95.409424      	94.53102       	94.42471       	95.374466      	93.56079       	94.553314      	94.83427       	92.08244       	93.96862       	93.514244      	93.008896      	92.84196       	91.99205       	94.40565       	93.33947       	93.06794       	93.534134      	92.86095       	92.788574      	93.16337       	92.74767       	92.655655      	93.13199       	
93.67375       	94.74222       	93.87317       	92.02766       	91.306114      	93.98345       	93.87892       	90.42122       	93.011154      	94.35235       	91.48931       	92.51709       	94.49568       	92.63644       	91.367355      	94.236465      	91.770294      	91.25065       	93.54993       	92.736824      	90.78718       	93.64709       	92.27661       	91.6403        	93.55936       	92.81731       	93.1713        	92.544205      	92.42116       	92.425446      	92.705574      	92.46117       	92.30836       	93.135124      	92.68929       	92.74273       	90.492035      	92.71502       	94.97159       	90.764336      	93.80518       	92.16829       	93.336586      	91.994316      	91.95149       	95.47385       	90.06238       	92.91966       	95.38234       	92.4936        	94.28491       	92.38836       	92.466866      	91.947395      	93.64734       	94.327385      	92.287674      	92.628624      	92.98783       	93.22316       	92.27697       	94.14662       	95.44096       	92.42885       	94.88036       	95.67475       	92.94182       	94.75677       	92.05678       	93.88701       	94.183365      	93.43742       	95.004585      	95.01568       	94.15128       	94.54129       	94.9248        	94.6669        	95.89179       	94.90656       	93.92201       	95.55241       	93.03771       	94.731636      	95.25375       	92.54591       	95.13843       	92.29651       	93.680626      	94.82675       	92.05827       	94.16838       	92.14991       	92.97656       	93.49614       	92.92533       	92.75347       	92.529526      	93.15671       	93.22022       	
93.25731       	92.70135       	92.17653       	92.29781       	92.90533       	92.54786       	91.56542       	92.12263       	93.43222       	93.10677       	92.21207       	93.19508       	93.58937       	92.367905      	92.74219       	93.52462       	92.63781       	92.17061       	93.98373       	92.73559       	92.01762       	93.471664      	93.770836      	92.3315        	93.15419       	92.37671       	92.7716        	92.42688       	93.35976       	93.53632       	92.88424       	93.826996      	91.54332       	92.45667       	93.32183       	91.77702       	93.023926      	93.590034      	91.27943       	93.91307       	93.01648       	93.35826       	92.909615      	92.65426       	93.965805      	90.34317       	93.62508       	94.95859       	93.01904       	94.06417       	93.00037       	93.10088       	92.68397       	94.66912       	96.40693       	94.08442       	95.8551        	94.173775      	94.68307       	94.291985      	93.734634      	93.75858       	94.120575      	95.35898       	93.33378       	96.0321        	92.476326      	95.70706       	95.4241        	93.80038       	97.03193       	95.28679       	94.286545      	98.71292       	94.93668       	94.831375      	97.990776      	95.250435      	94.710464      	98.22893       	94.58651       	94.08451       	96.8723        	95.26728       	94.889206      	96.191696      	94.74373       	94.827896      	96.50754       	94.5086        	96.24232       	94.22111       	94.26047       	96.32658       	94.491714      	92.483536      	95.141106      	94.8204        	92.3456        	94.5326        	
93.92237       	93.901405      	94.05635       	93.78621       	93.3586        	93.536026      	93.94617       	93.576775      	92.391594      	94.14694       	94.81693       	92.7041        	93.49365       	94.18457       	92.600815      	92.26461       	93.79705       	92.93155       	92.71239       	92.82994       	92.81421       	93.323814      	92.48461       	93.42693       	93.76039       	92.873665      	94.09528       	92.9718        	94.98644       	93.46573       	93.518425      	94.66708       	92.99691       	94.592636      	91.943085      	93.85788       	94.9338        	94.42392       	94.47082       	94.38082       	93.66143       	91.78722       	93.07398       	94.74559       	91.30989       	93.22914       	94.66629       	94.340706      	94.46086       	93.404945      	93.59664       	93.85059       	92.79501       	94.31181       	92.355316      	93.91049       	96.259445      	93.316216      	94.597206      	95.79851       	95.07784       	94.68477       	94.3116        	95.12069       	93.479416      	94.82023       	93.17086       	93.88506       	97.27164       	92.21058       	96.572754      	97.95753       	94.28309       	98.60766       	94.84379       	96.9171        	96.98409       	94.83271       	98.413826      	96.24897       	94.47183       	97.83287       	95.44606       	94.264084      	96.67479       	94.18897       	94.44518       	95.702286      	94.16995       	95.54355       	93.34693       	94.61308       	95.42753       	92.165054      	94.48356       	95.7808        	91.73027       	93.82335       	95.381516      	92.03881       	
95.57425       	94.75574       	94.28317       	94.536865      	94.44327       	94.13199       	93.39875       	94.43644       	94.011665      	93.2917        	94.49036       	94.31957       	92.580826      	95.540726      	95.03224       	92.92342       	94.356575      	94.16101       	92.96392       	94.168686      	94.1153        	93.16724       	94.44661       	93.5088        	93.9997        	94.93938       	93.92269       	94.99059       	94.92482       	92.843796      	94.86751       	93.99812       	93.81571       	94.46325       	92.52957       	94.050125      	94.45391       	92.59037       	94.46136       	94.044914      	93.78242       	93.077866      	92.45793       	94.4838        	92.85372       	93.15132       	93.54764       	93.75911       	91.99464       	93.224205      	94.9541        	92.2172        	95.06373       	94.130684      	93.10556       	93.464584      	92.94896       	93.37294       	93.07202       	93.922455      	94.92512       	94.667496      	94.63326       	94.56673       	93.95952       	94.14338       	94.24959       	93.43083       	94.05629       	94.34891       	94.12743       	93.25701       	94.87662       	95.33025       	93.349655      	95.607086      	95.52193       	93.527824      	95.24863       	94.19198       	93.30268       	95.88013       	93.2638        	94.141685      	94.014824      	93.55387       	94.036674      	94.52841       	94.112465      	94.12609       	93.68758       	94.77511       	93.14223       	93.51976       	94.82274       	93.312904      	92.91847       	93.75489       	93.69209       	92.65642       	
95.16446       	94.45122       	93.91037       	93.47906       	94.11933       	95.281624      	93.403244      	92.60352       	94.01583       	93.07181       	92.26653       	93.36958       	94.29481       	93.11739       	94.09284       	93.71574       	92.63537       	93.643745      	92.96029       	92.45634       	93.80492       	93.533646      	92.478806      	93.8227        	94.11275       	92.05274       	93.15578       	94.41712       	91.82561       	93.59582       	95.08868       	92.90583       	95.03634       	92.15468       	94.57149       	94.2085        	92.425606      	93.763954      	94.19099       	93.733635      	92.7943        	93.08515       	93.295906      	92.91829       	93.46779       	93.160805      	93.856514      	90.95272       	93.13952       	94.78014       	92.168526      	93.92034       	94.29428       	93.23831       	94.06023       	94.65717       	92.35263       	93.673294      	94.40473       	94.34803       	93.63566       	94.26801       	93.575386      	93.123985      	93.50807       	92.856415      	94.214584      	94.15663       	92.93558       	94.388885      	94.068436      	94.45821       	94.781364      	94.042046      	94.46141       	94.11073       	95.06636       	93.700005      	94.65074       	95.884995      	93.84815       	94.59061       	93.89948       	93.65807       	93.66534       	93.012505      	92.8748        	92.88984       	92.7598        	92.762535      	93.58436       	93.9775        	93.76647       	94.03129       	93.63159       	93.215126      	94.16129       	93.07344       	93.017265      	94.20562       	
92.744865      	93.773384      	94.78448       	94.51451       	93.08557       	92.868614      	94.049644      	93.81383       	93.041954      	93.469475      	93.223114      	93.52784       	93.74616       	93.57209       	92.7918        	93.90145       	93.599655      	92.60808       	93.85474       	92.83714       	92.571365      	92.74625       	92.53153       	93.61466       	92.88713       	93.48742       	93.9751        	92.44998       	92.32593       	93.7552        	92.82373       	93.4024        	93.706825      	93.06417       	95.188095      	94.59566       	94.16078       	93.61214       	92.420235      	92.68602       	92.315704      	93.62283       	91.49448       	92.740166      	93.45675       	93.87843       	91.10547       	91.48597       	93.171585      	93.420044      	93.06429       	93.65583       	93.47566       	93.29555       	92.82556       	94.39405       	92.84291       	93.53863       	94.46872       	95.77104       	93.03752       	94.91459       	95.17628       	93.11293       	95.72095       	95.09431       	93.912155      	95.00927       	94.13082       	94.684845      	94.78456       	93.8901        	94.28368       	94.434364      	94.888664      	95.12505       	94.324265      	94.30924       	94.07298       	94.130325      	92.56783       	93.92638       	93.09541       	92.5844        	92.45085       	92.58257       	91.69817       	92.583176      	93.45769       	92.516884      	93.448135      	93.630455      	93.17721       	94.1136        	93.680145      	92.9157        	94.660675      	94.2935        	93.99737       	94.32979       	
94.73797       	94.50744       	94.55969       	95.04156       	94.5926        	93.817696      	94.911995      	94.355644      	93.54374       	94.16985       	94.54678       	93.964         	93.43659       	93.311905      	93.88211       	94.54338       	93.48792       	93.62548       	94.486084      	93.52157       	92.819664      	94.32186       	94.04078       	93.46758       	94.15915       	94.44896       	93.90601       	94.01952       	94.24683       	94.057625      	93.62674       	93.01694       	93.49011       	93.34836       	93.8568        	92.67415       	91.91613       	92.95063       	92.157974      	93.551704      	94.57275       	91.96012       	94.22332       	93.53669       	92.96363       	93.22613       	93.65161       	94.49852       	92.096504      	93.97121       	93.81325       	93.617546      	94.496445      	93.70511       	93.85045       	93.47579       	93.97184       	93.83199       	93.1878        	94.904         	92.96813       	93.60463       	94.99088       	93.92414       	93.51839       	94.65168       	94.648186      	94.47502       	94.29123       	93.865486      	93.83648       	94.6581        	94.01708       	94.29792       	96.42282       	94.83316       	96.06998       	94.709145      	94.9338        	95.285515      	94.36114       	94.21545       	94.37003       	94.58422       	93.36258       	93.855865      	94.26558       	92.93808       	94.06611       	93.74211       	93.31266       	94.22659       	93.41551       	95.04762       	95.62495       	93.9213        	93.81803       	94.33362       	94.757706      	93.37071       	
91.91234       	91.84611       	91.82426       	92.55528       	92.8416        	91.24853       	91.44308       	93.26753       	92.07108       	91.826935      	93.29402       	92.569695      	91.84689       	92.33046       	91.61389       	91.48737       	92.12486       	91.93279       	92.19853       	91.59193       	92.90137       	92.52888       	92.569016      	93.30252       	92.26559       	93.70442       	94.26196       	93.059235      	93.76034       	93.89064       	93.68251       	93.61645       	95.690636      	95.78903       	97.65172       	98.69945       	99.79697       	101.49431      	100.369354     	101.035286     	101.60376      	96.98324       	98.56534       	97.916016      	93.42248       	93.899796      	93.68869       	93.52609       	90.4424        	91.6189        	91.26529       	90.5946        	89.78985       	89.43092       	89.069786      	88.420395      	90.45346       	88.92409       	89.726425      	92.453285      	91.38573       	91.42041       	91.14247       	90.32712       	90.24906       	89.607315      	91.356125      	89.32304       	90.521736      	91.54355       	89.85623       	92.238525      	90.1138        	90.01313       	89.338455      	89.24569       	89.44706       	89.0846        	89.402885      	88.58956       	90.66627       	88.636635      	91.083405      	91.47542       	89.685074      	91.652435      	90.71659       	91.681435      	91.47417       	90.696526      	91.58393       	92.034454      	93.36362       	91.93848       	93.084         	94.090126      	93.011635      	94.03373       	93.96607       	93.61934       	
93.30371       	92.84547       	93.338554      	94.19774       	94.64863       	93.646774      	93.39075       	95.4585        	94.40824       	93.63188       	95.0144        	95.03908       	94.51734       	95.15292       	94.61543       	95.69984       	95.4889        	94.81599       	95.99096       	95.811775      	94.799324      	96.92882       	96.097         	97.954506      	97.69759       	97.10882       	97.460434      	97.24084       	97.002144      	97.469406      	97.638626      	98.09644       	97.05909       	98.43778       	97.04881       	98.801636      	99.418686      	97.848236      	98.82054       	97.99538       	98.16077       	97.933105      	97.758415      	95.59471       	97.06328       	98.4937        	97.825165      	97.00956       	97.11809       	98.15633       	99.50687       	96.39698       	99.24205       	99.536285      	97.39741       	98.09147       	97.068         	96.361244      	96.52471       	98.24826       	95.47229       	97.04186       	98.44394       	96.09101       	97.44308       	97.64772       	96.114815      	96.95232       	96.20593       	97.38886       	96.16833       	95.92398       	97.69714       	96.24223       	97.03633       	95.34201       	95.722206      	95.42555       	93.9725        	94.05638       	93.57947       	94.41767       	92.95511       	93.673225      	95.2154        	92.90065       	92.79655       	92.4254        	92.29097       	90.35749       	92.59301       	93.9756        	91.306816      	93.943436      	90.31299       	92.31109       	93.37676       	91.10995       	91.25354       	92.41539       	
93.87704       	93.51198       	93.375275      	93.54263       	93.05462       	93.799126      	93.7466        	94.05699       	94.22746       	94.16992       	92.69177       	93.31033       	94.14162       	93.32005       	93.206055      	94.34498       	93.74723       	92.73306       	94.55392       	93.7304        	93.48909       	94.4118        	93.718704      	94.12739       	94.02787       	93.89458       	93.26109       	93.22271       	94.37728       	92.99904       	94.28613       	94.92614       	93.12157       	95.474655      	94.60015       	94.82486       	94.61051       	94.15776       	93.70125       	94.66263       	92.93811       	93.68698       	95.41025       	91.997955      	94.15902       	94.43331       	93.32703       	92.19629       	91.84124       	94.04817       	95.64693       	93.11972       	95.4413        	94.8391        	94.55696       	95.17946       	94.7345        	94.328995      	93.679474      	95.49264       	96.11368       	95.22221       	95.27675       	94.112785      	95.96048       	92.98124       	96.87884       	95.632774      	94.19527       	96.994415      	95.131294      	95.303024      	96.49484       	93.95944       	94.223114      	94.274         	94.7383        	92.928795      	94.41902       	94.5583        	92.57946       	94.50752       	93.19854       	92.79402       	91.011284      	91.88216       	93.58046       	90.54591       	93.39999       	94.24381       	92.10161       	94.28301       	93.369705      	93.10726       	94.19339       	91.5482        	93.530525      	93.90306       	92.011185      	93.98131       	
94.191444      	93.18078       	92.96844       	94.95069       	94.693344      	93.6664        	96.146576      	93.67137       	93.700806      	94.651535      	92.879845      	94.03125       	94.93612       	93.64511       	94.71129       	94.328316      	93.49354       	94.964935      	93.9998        	94.12264       	94.27033       	94.382576      	95.661674      	92.99866       	95.25455       	93.399284      	94.04798       	94.17765       	93.238434      	93.91126       	93.90272       	93.897896      	93.64163       	94.21232       	93.53099       	94.2779        	94.751305      	93.83338       	95.47276       	95.38231       	94.42411       	95.00916       	94.25035       	93.68278       	94.04891       	93.57833       	92.29787       	93.31548       	95.13428       	95.19776       	93.11439       	93.64266       	94.17502       	93.01448       	93.4632        	94.20788       	92.75411       	93.78508       	94.91429       	93.24557       	94.61784       	94.53566       	94.06237       	94.096924      	94.562294      	93.16704       	93.50389       	93.35692       	93.64244       	94.79419       	95.10424       	94.212105      	95.91291       	93.66585       	94.80992       	94.77775       	93.30849       	95.14324       	94.08927       	92.94542       	93.087         	93.75805       	94.59061       	92.37281       	93.41691       	91.876144      	92.28277       	90.56412       	91.913895      	94.126724      	90.71329       	93.11075       	93.812386      	92.91865       	93.64727       	93.52795       	91.57799       	91.87663       	92.77864       	91.988396      	
94.21725       	94.9014        	95.77208       	95.78169       	94.66132       	94.65717       	95.82886       	95.32463       	95.726204      	94.85643       	94.5665        	94.996056      	94.19422       	94.95093       	94.46216       	93.99463       	94.49599       	93.63724       	92.993866      	94.93631       	93.66993       	93.98983       	94.75609       	93.14649       	94.12          	94.36067       	92.66198       	93.11027       	92.54271       	92.904854      	92.72475       	92.75107       	93.84108       	92.727066      	93.240555      	92.39404       	93.951546      	92.97684       	93.02857       	93.414345      	92.88045       	93.01893       	93.747246      	93.46153       	93.67394       	92.18614       	94.007195      	94.09071       	94.26989       	93.4351        	94.32547       	94.74044       	93.62039       	94.70367       	94.99151       	94.116264      	95.447624      	94.56676       	94.922844      	95.91676       	94.67375       	95.83678       	95.038765      	94.73711       	95.05743       	94.91656       	94.508194      	95.03786       	94.845474      	94.840866      	95.00021       	95.58725       	95.29058       	96.26936       	95.14611       	94.41795       	94.5653        	93.294846      	92.900955      	93.605225      	94.05009       	92.454666      	92.737274      	93.60174       	94.127655      	92.619194      	93.09544       	94.29937       	94.93836       	93.14795       	95.15539       	95.11222       	93.06043       	94.11183       	94.15462       	93.300255      	93.50089       	91.95129       	93.74547       	93.00202       	
94.67343       	94.76468       	94.8883        	94.85994       	93.435715      	95.04649       	93.491325      	95.405876      	94.831795      	93.36781       	93.78847       	94.495766      	94.038765      	93.70372       	94.49914       	93.74995       	93.413666      	93.96997       	94.62531       	94.28898       	94.3057        	92.86717       	93.68079       	93.25863       	93.51103       	92.735275      	93.31913       	92.68537       	92.62432       	93.12586       	93.501015      	93.09178       	94.85377       	94.20267       	93.99802       	93.09097       	93.30211       	93.96602       	92.566864      	92.87973       	93.81812       	93.48272       	93.41155       	94.50319       	92.08272       	93.845406      	95.36593       	94.9826        	94.06712       	94.95328       	94.7458        	95.25838       	95.561554      	96.12995       	95.491875      	95.54049       	95.61695       	95.20361       	96.64648       	96.06456       	96.13008       	97.10946       	94.91324       	97.68051       	95.60391       	97.09452       	96.105995      	96.13111       	97.127205      	96.13426       	96.96843       	96.16936       	96.637665      	95.05038       	95.18799       	93.91774       	94.64014       	96.3099        	95.91023       	94.298225      	95.04693       	93.84022       	93.58603       	93.86412       	94.445755      	95.26135       	92.722015      	94.14218       	94.689415      	92.095         	91.991005      	93.284454      	91.378914      	92.80427       	94.31318       	91.12892       	93.08729       	93.090614      	92.74645       	94.02497       	
92.04354       	91.51103       	92.22111       	92.79769       	91.96655       	91.72932       	92.91113       	92.02047       	91.86849       	91.42931       	91.91395       	91.77258       	91.52111       	92.059326      	92.394394      	91.9828        	93.290054      	91.58156       	92.688675      	92.54072       	91.20377       	92.63398       	93.49141       	91.41163       	92.48363       	91.95304       	91.89195       	92.541954      	91.6076        	92.23246       	92.282364      	91.56029       	92.102325      	93.48369       	92.014595      	93.8085        	92.475235      	92.60013       	92.74193       	92.999344      	93.98311       	93.67779       	93.85252       	93.75418       	93.06515       	92.62348       	94.15144       	90.99454       	93.15027       	94.92908       	92.83887       	94.212776      	94.498         	93.45403       	93.75802       	93.43599       	93.99226       	93.678696      	94.71053       	93.50045       	94.29321       	94.09313       	93.10127       	94.83154       	94.13365       	94.091415      	94.24108       	92.87264       	94.86096       	95.44495       	93.91771       	94.428474      	93.95431       	94.06591       	93.80397       	93.65528       	94.12251       	92.92691       	93.29267       	93.51742       	92.40871       	92.274956      	93.962395      	95.10977       	92.505264      	94.51887       	92.811         	92.64656       	92.219536      	93.015         	94.44774       	90.92674       	93.01746       	94.251205      	91.25685       	93.41865       	93.53023       	92.282265      	93.05778       	93.81873       	
93.39753       	92.3047        	91.15349       	93.02461       	93.05805       	91.83359       	92.21722       	92.220985      	92.324234      	92.304405      	90.96638       	92.936676      	93.486275      	91.86324       	92.34106       	91.98372       	92.39855       	93.525444      	92.55922       	94.66582       	92.14448       	92.10109       	94.91479       	91.62174       	94.19299       	92.84565       	92.82335       	93.57586       	91.71105       	92.90504       	92.903404      	92.99259       	93.85189       	93.06929       	94.653595      	93.44507       	94.848915      	95.07298       	94.18582       	94.71125       	92.86935       	93.597565      	92.52381       	93.853424      	92.10243       	93.037636      	95.56132       	92.74184       	95.302475      	95.15492       	93.77682       	95.21725       	94.20151       	95.06862       	94.77414       	94.90654       	93.94572       	94.009026      	95.2612        	93.78923       	96.00963       	95.122765      	94.10481       	95.06453       	94.73637       	95.085014      	95.16405       	94.51718       	94.69951       	94.76685       	94.12553       	95.1243        	93.99321       	93.54252       	93.691444      	93.290474      	93.69302       	92.37244       	93.07085       	93.9292        	94.15876       	92.486984      	94.12899       	93.84391       	94.1606        	92.486206      	93.1725        	93.33456       	91.95777       	91.797844      	92.526596      	93.92304       	90.00142       	92.65901       	94.21949       	93.137085      	93.05851       	93.48227       	93.44859       	93.03636       	
93.99479       	92.90407       	92.16812       	93.050545      	93.1875        	91.91594       	94.45696       	93.36977       	93.541         	94.28914       	92.32467       	92.7749        	93.99403       	93.268         	93.11998       	93.709076      	93.379585      	93.87916       	92.597855      	93.51247       	93.477165      	93.56495       	94.137726      	92.647415      	93.86276       	93.5175        	92.41234       	93.36056       	93.26774       	92.83111       	93.4472        	94.48211       	94.41452       	94.060356      	94.44923       	94.69824       	95.3621        	93.33011       	95.00855       	93.53838       	93.91379       	93.26683       	93.07604       	94.12134       	92.917076      	93.84325       	94.51232       	94.41919       	94.921104      	94.82525       	94.35438       	94.56449       	94.76388       	94.5354        	95.37357       	95.52756       	94.835526      	96.002075      	95.87757       	95.05598       	96.13002       	94.60063       	96.50265       	94.235756      	95.54072       	95.244064      	94.877686      	95.89928       	94.79231       	95.03642       	94.44649       	94.98111       	93.71522       	93.53392       	95.56627       	93.104004      	95.68962       	95.63554       	94.866974      	93.665085      	94.62968       	95.0357        	95.457924      	93.649086      	93.96573       	94.594086      	92.51629       	92.96319       	95.06173       	95.487946      	92.70426       	94.48031       	94.15935       	94.24759       	93.01974       	93.33192       	95.36663       	92.87306       	94.60316       	95.24495       	
94.38485       	94.54201       	94.53659       	94.45459       	94.33636       	95.80911       	95.642914      	94.60926       	94.817314      	94.2056        	93.15882       	94.55983       	94.18682       	94.025345      	93.77465       	94.08267       	94.023476      	94.11215       	93.85237       	93.61427       	94.31644       	94.26152       	94.44472       	94.011024      	92.72574       	94.56193       	94.21951       	93.15019       	95.58647       	94.14063       	94.96355       	93.62513       	94.19168       	95.0956        	93.757935      	94.33503       	94.87951       	94.21777       	94.05252       	94.560776      	93.89361       	94.89969       	94.24708       	95.143524      	95.5594        	94.46029       	95.346794      	95.39853       	94.40364       	95.28055       	94.949844      	94.7444        	94.999596      	95.16722       	95.08935       	96.05795       	96.02298       	96.06068       	96.14013       	94.80126       	96.40175       	96.220955      	95.87076       	96.25396       	93.746346      	95.772255      	93.34376       	95.27341       	96.22526       	94.52682       	95.16406       	94.4059        	94.8247        	93.41593       	93.788506      	92.85992       	94.91462       	95.39595       	93.516884      	94.97571       	94.012405      	93.22337       	92.20415       	92.626045      	94.5068        	92.12745       	93.38419       	93.34144       	94.419754      	91.38054       	92.827774      	94.20863       	90.79317       	93.097374      	93.89384       	93.45384       	93.12515       	92.75341       	93.26009       	93.430084      	
92.98029       	94.035736      	95.11771       	95.44365       	92.870186      	93.60747       	94.25579       	93.11393       	93.72525       	92.85153       	93.102875      	93.429436      	92.99875       	93.854866      	94.01806       	93.6008        	93.75058       	95.233315      	93.515366      	93.79593       	94.93755       	93.512566      	93.71721       	94.67902       	94.05867       	93.63367       	94.77171       	93.290276      	95.79443       	94.279434      	95.334755      	95.04078       	94.8759        	95.08261       	93.98267       	94.31563       	93.92754       	93.857376      	93.207466      	93.41894       	93.32153       	92.9763        	93.86048       	93.209465      	94.454704      	94.555016      	93.89043       	94.662796      	94.98244       	95.196655      	95.098335      	95.59387       	95.20162       	96.3029        	94.741295      	94.77025       	95.693275      	94.502495      	95.48509       	96.542145      	95.08081       	95.46578       	95.44427       	95.602715      	94.99743       	96.483696      	94.87903       	95.28848       	94.766685      	94.16226       	95.12303       	94.16712       	94.12174       	94.1871        	94.19176       	94.081314      	93.97008       	93.660835      	94.0299        	92.399086      	93.26115       	95.1258        	95.43094       	93.03842       	94.11178       	92.630165      	92.358795      	90.56611       	93.909744      	95.96268       	90.60411       	93.2492        	93.32738       	93.33476       	91.91118       	93.43856       	94.691696      	92.335526      	94.60779       	94.46888       	
93.222115      	92.84672       	93.17901       	94.18769       	92.79663       	92.88673       	94.10622       	92.60286       	92.97673       	93.731674      	93.13638       	93.189644      	93.86927       	93.065315      	93.45458       	93.07715       	92.196045      	93.39143       	92.69264       	91.529945      	93.60631       	93.216705      	92.3618        	94.83857       	92.4242        	94.877144      	93.58161       	93.99101       	93.6875        	92.904144      	94.43929       	93.46263       	94.23116       	93.03664       	93.068634      	92.88249       	93.41481       	92.39905       	92.62256       	93.25614       	91.949005      	93.057236      	92.75231       	93.28647       	93.541664      	92.93014       	94.91358       	93.57304       	94.14299       	94.86856       	93.662025      	94.72116       	93.86662       	94.45141       	93.96756       	94.34592       	94.58713       	94.11191       	95.87471       	93.64598       	96.45435       	96.1714        	94.46341       	96.34264       	94.89551       	96.60794       	95.05301       	95.477264      	96.10727       	93.37773       	94.78039       	94.38648       	93.857994      	94.55379       	94.11512       	94.12824       	93.51416       	94.40915       	94.34449       	93.88219       	94.082695      	93.76127       	94.19633       	91.039955      	93.18199       	93.66378       	90.62134       	92.07093       	92.00526       	92.50309       	90.76289       	91.36952       	93.251236      	91.35538       	92.17204       	93.31241       	92.91627       	93.072174      	93.35799       	93.62743       	
93.87915       	94.31108       	94.16933       	92.89335       	92.64125       	94.240036      	93.714676      	91.43694       	94.24426       	93.50133       	92.835045      	93.33768       	93.56651       	93.487564      	93.25602       	93.14832       	93.59155       	93.708954      	92.05368       	93.62188       	94.14955       	92.14715       	93.69234       	92.98287       	92.617065      	95.22726       	92.153244      	95.510345      	91.09355       	91.49861       	92.62153       	96.139885      	95.10638       	94.67086       	96.94394       	92.82913       	96.899124      	94.84745       	92.726395      	95.5808        	92.96076       	93.62056       	93.071236      	93.8423        	93.551506      	94.39764       	94.612915      	94.40634       	95.71182       	93.459175      	96.26384       	93.799934      	95.0952        	96.38992       	93.72705       	96.1265        	93.11751       	94.76571       	95.830696      	94.106865      	95.46664       	92.98819       	94.55493       	95.45927       	94.999725      	95.72018       	95.24262       	95.80973       	94.72226       	95.36951       	93.85945       	94.30761       	94.358086      	94.3934        	94.70181       	92.93916       	92.87073       	94.0314        	94.662834      	92.89624       	94.75908       	93.46858       	93.59633       	93.12528       	92.85359       	91.11012       	91.81298       	93.33163       	93.48137       	91.05401       	92.41429       	93.31641       	91.16139       	92.189766      	93.75715       	90.86461       	93.58415       	93.808975      	91.56441       	93.235466      	
93.81154       	93.702835      	93.69135       	94.07862       	94.19856       	92.796585      	94.45932       	93.7003        	92.37371       	94.126656      	93.4285        	92.5974        	94.08471       	92.52226       	92.65767       	94.90257       	91.591934      	93.93177       	95.198296      	92.27493       	94.652954      	93.22559       	93.70287       	95.165146      	93.58064       	94.6684        	95.05627       	94.25256       	94.527084      	95.14104       	93.8391        	95.5935        	94.55626       	93.8221        	95.29264       	93.70045       	96.14526       	93.56113       	92.78964       	95.16379       	92.96027       	95.68946       	93.28515       	92.76538       	95.24367       	94.26135       	95.4261        	94.18143       	95.17205       	94.01517       	94.768684      	94.525406      	94.99388       	94.58756       	94.01954       	94.93584       	94.69289       	94.89741       	94.6961        	94.620224      	96.10727       	94.601685      	96.65632       	95.216095      	95.74733       	96.377304      	95.25382       	95.08975       	95.6729        	94.47587       	95.03219       	94.50688       	94.103096      	95.19704       	93.398476      	94.60174       	95.59197       	92.75932       	93.66295       	94.934586      	92.611786      	94.16859       	95.00622       	94.288506      	92.82511       	93.330475      	92.87505       	94.40434       	91.668304      	93.568184      	94.34614       	92.21821       	93.21826       	94.305336      	92.59221       	93.69409       	93.58575       	92.897575      	91.922325      	92.028534      	
95.06064       	94.27469       	93.62944       	94.480675      	93.98856       	92.33415       	92.40083       	94.39721       	93.3224        	93.02438       	93.76517       	93.69146       	93.38294       	93.75945       	93.26686       	93.87264       	93.99081       	92.516         	94.60954       	94.24653       	92.83186       	93.794205      	94.50896       	93.13391       	95.312775      	92.72779       	94.19028       	95.32753       	93.14214       	95.80359       	94.45551       	95.412094      	95.141365      	94.36779       	95.88327       	93.17981       	94.62602       	95.64796       	94.37513       	95.08062       	93.94739       	94.45675       	94.978325      	94.30472       	94.891         	94.8639        	94.900826      	95.68123       	95.50145       	94.49354       	96.28039       	94.90927       	96.298935      	95.199326      	95.147545      	96.54347       	95.2856        	96.422         	96.02916       	94.63762       	95.31587       	94.61641       	94.80038       	95.29161       	95.3716        	95.47653       	95.93468       	95.895226      	95.607086      	95.42348       	94.66537       	94.19597       	94.898964      	93.64836       	95.16214       	93.38405       	94.08627       	95.88574       	92.6371        	95.11169       	95.1398        	93.04914       	93.54698       	91.81011       	93.15231       	91.19634       	92.00448       	93.84431       	91.16731       	91.99322       	92.55358       	93.157906      	91.5523        	92.52007       	94.93549       	90.98058       	94.26572       	94.42453       	93.77319       	94.699234      	
92.57959       	90.906815      	91.00384       	91.854294      	92.10962       	91.20782       	92.07044       	92.665146      	91.48169       	91.54821       	92.62672       	93.69735       	91.50237       	93.03548       	93.4607        	91.26403       	92.50737       	93.98621       	91.31977       	91.54358       	94.42565       	91.852066      	92.40111       	94.03008       	91.694695      	93.75278       	94.00769       	92.707924      	93.49594       	93.743576      	93.970695      	93.34588       	93.712036      	92.495735      	94.19704       	91.38668       	94.050766      	95.0577        	92.66287       	94.8485        	92.35383       	94.80112       	93.196335      	93.91973       	94.56006       	94.47527       	94.68913       	94.20467       	95.15732       	93.60463       	95.42619       	93.44063       	94.11641       	94.37299       	93.22902       	95.941765      	94.54716       	95.872734      	95.04671       	94.28651       	95.68229       	95.30355       	95.62517       	95.968765      	94.6803        	96.38294       	96.63109       	95.00572       	95.93905       	93.77176       	94.94466       	94.610855      	93.392746      	94.509895      	94.70191       	93.26685       	95.27703       	95.76229       	94.42304       	95.45318       	94.53666       	93.93074       	93.550255      	93.393745      	94.870125      	92.13078       	94.2924        	95.52758       	92.07797       	93.97497       	93.97728       	93.13957       	94.0218        	94.24649       	94.22452       	93.45765       	93.78281       	94.037506      	93.38274       	93.1989        	
92.69284       	92.89389       	93.91163       	95.133125      	92.12678       	94.382744      	94.6305        	91.355064      	94.410515      	94.03976       	91.84156       	93.93208       	93.53468       	92.69124       	93.628815      	93.17675       	93.846306      	93.20224       	92.75667       	94.16594       	92.96529       	93.037285      	94.33109       	93.3424        	92.734604      	94.97276       	94.66955       	94.3923        	94.03576       	94.658485      	94.19864       	95.41878       	94.11392       	93.61945       	94.95918       	92.975945      	93.16851       	94.248825      	93.37111       	94.51278       	93.81243       	94.0763        	94.841064      	94.98392       	95.641685      	95.49985       	95.090096      	96.538345      	96.23054       	96.73802       	96.869545      	96.21886       	96.82931       	94.508804      	96.62408       	93.1507        	94.88944       	95.918144      	93.37702       	95.12728       	92.9222        	94.31588       	93.9047        	94.53466       	95.45848       	94.176285      	94.820885      	94.91729       	94.87578       	94.41785       	94.46673       	94.11303       	93.96266       	94.640175      	93.92376       	94.5474        	93.104         	93.1483        	93.419624      	93.26868       	91.98259       	93.22147       	94.365265      	94.15157       	93.206795      	92.20663       	94.764786      	91.377686      	92.561554      	94.76842       	95.11408       	93.74833       	93.9145        	93.27477       	94.05652       	93.53073       	93.0577        	93.512436      	92.63347       	94.03227       	
93.65172       	93.88498       	94.89279       	95.09786       	94.63039       	93.73659       	93.579575      	93.353165      	93.53581       	93.74403       	92.22647       	92.90268       	93.46231       	92.15292       	93.81877       	92.77612       	94.094246      	94.59942       	92.30699       	92.912125      	94.59197       	92.10006       	94.23204       	94.36984       	93.88496       	94.6045        	94.00909       	94.13557       	94.00477       	94.958694      	94.63278       	94.627235      	93.797806      	94.7992        	94.01112       	95.20442       	94.79527       	93.63965       	96.31486       	94.889366      	95.95723       	96.25248       	94.61742       	97.39361       	93.28431       	96.93074       	96.99156       	95.64771       	96.703705      	95.204094      	96.26634       	94.82624       	96.52962       	95.219086      	95.79475       	96.52255       	96.6003        	96.53694       	95.72991       	97.4298        	94.25047       	97.65092       	95.81285       	96.4084        	95.44185       	94.84814       	95.48373       	93.51018       	94.868774      	94.460495      	94.07434       	93.91655       	94.79333       	94.91307       	93.97164       	94.37883       	93.67491       	93.97786       	92.616646      	94.13972       	91.395805      	92.51602       	94.78387       	91.80753       	92.54024       	94.32663       	91.88866       	93.56021       	93.54872       	92.65135       	92.07744       	93.192184      	94.97393       	92.02586       	95.18868       	92.41992       	94.62521       	94.75548       	92.74023       	95.797646      	
95.122116      	94.390305      	94.261955      	93.76037       	93.604774      	92.8369        	93.00323       	93.50243       	93.4973        	93.76972       	93.111206      	93.384766      	92.78664       	93.58923       	93.50475       	91.666985      	93.74434       	93.40439       	92.4604        	94.40234       	92.96651       	92.632576      	94.63256       	93.10269       	94.34802       	94.503136      	93.19984       	94.069824      	94.00075       	93.35714       	94.54477       	93.684135      	94.11754       	93.39474       	94.14644       	93.454185      	93.437225      	94.24708       	94.286255      	93.77237       	95.61671       	94.50963       	95.0383        	95.24669       	94.67809       	95.04452       	95.57742       	94.553825      	95.29027       	93.31304       	95.51956       	95.82449       	94.57621       	96.03589       	95.14526       	94.86417       	94.83041       	94.77631       	93.91808       	95.371414      	93.28576       	93.010414      	93.1242        	92.8615        	93.6357        	92.018295      	93.2293        	93.059494      	92.233734      	94.79223       	92.52516       	93.99878       	93.31604       	94.78997       	94.02431       	94.0192        	93.01608       	92.88171       	94.05395       	92.62813       	94.28661       	91.39934       	93.18664       	94.127884      	92.0452        	92.82393       	93.117256      	91.16902       	92.340454      	93.500946      	91.14317       	92.8365        	93.314545      	92.13001       	94.138824      	92.29733       	92.44948       	93.54871       	90.79393       	92.600494      	
93.7732        	92.057076      	92.091545      	93.83915       	92.75412       	93.125244      	93.002686      	93.4131        	93.51908       	93.82863       	93.02897       	93.52874       	93.1974        	93.76771       	92.490364      	93.292915      	91.20904       	92.92752       	93.74415       	91.45006       	92.598335      	94.251236      	91.985855      	93.012215      	94.62165       	93.26241       	94.3724        	94.108635      	94.327545      	94.028854      	93.582306      	93.81391       	93.29787       	94.533554      	92.65361       	93.857994      	93.00822       	93.27607       	94.54616       	92.88072       	95.20238       	94.90263       	94.90224       	94.80351       	95.50479       	94.34837       	94.09375       	94.95808       	94.06672       	96.05763       	93.690956      	96.62237       	94.08688       	94.11287       	96.38746       	94.15065       	96.2832        	93.903435      	95.911514      	94.74079       	95.91422       	94.534676      	93.50876       	96.12167       	94.037155      	96.7634        	93.546844      	93.43055       	94.28456       	92.479195      	96.39566       	93.88014       	95.5767        	95.2014        	94.949844      	95.20757       	93.949104      	94.63513       	94.256386      	92.878365      	94.14188       	94.12668       	93.45503       	93.76376       	93.17469       	92.90813       	93.02287       	92.31002       	93.26769       	93.35733       	92.733025      	92.96606       	94.034294      	93.04433       	92.58691       	94.76108       	93.367096      	93.066414      	94.5558        	91.3484        	
93.381226      	92.8941        	93.06276       	93.22302       	92.70506       	93.72315       	92.72433       	93.23308       	93.75937       	92.72507       	94.55472       	92.63249       	94.822464      	95.418495      	93.150185      	95.0935        	92.13832       	92.34795       	94.24504       	92.98564       	92.57955       	92.90698       	92.86856       	94.12092       	93.24857       	93.62657       	94.81344       	92.80009       	96.48827       	92.47334       	95.52127       	92.1042        	94.3909        	94.98896       	93.97755       	95.89579       	93.288086      	95.91667       	93.941246      	95.68042       	94.50673       	94.1009        	95.18825       	95.45462       	94.659225      	94.605415      	95.303696      	94.86586       	95.57099       	96.33976       	94.68126       	95.27116       	93.540825      	94.36039       	95.159294      	94.51063       	95.22325       	95.0363        	94.46851       	95.7939        	97.04869       	96.377396      	96.82929       	95.08282       	97.19152       	96.752754      	95.26502       	95.455154      	94.291145      	94.383         	94.67273       	94.080635      	94.772285      	95.5158        	93.73426       	94.66751       	94.560455      	93.636765      	94.770966      	93.5609        	93.470245      	92.430534      	92.23341       	93.20166       	92.67493       	93.21423       	92.62915       	93.394615      	93.22013       	93.17138       	93.40518       	92.57411       	93.987724      	94.031906      	93.51175       	93.834366      	92.85779       	93.29088       	93.54184       	94.03468       	
92.90874       	93.42262       	93.74816       	92.7388        	93.16949       	93.64532       	93.21386       	93.44477       	93.78271       	93.417496      	93.4069        	93.01668       	92.93593       	93.37552       	93.78487       	93.0267        	92.40871       	93.293465      	92.191         	92.05823       	93.15602       	92.65181       	92.81151       	93.44469       	93.618256      	93.80821       	94.459526      	93.7319        	95.14796       	92.521286      	94.377716      	93.94857       	94.37435       	94.45365       	92.53121       	94.34147       	94.02548       	94.25996       	94.43297       	94.32205       	94.374374      	94.10341       	94.965576      	95.315605      	95.68933       	95.33027       	95.908134      	96.045975      	95.21549       	96.002914      	94.522255      	94.719284      	95.727325      	95.26995       	95.310875      	95.71439       	95.29408       	95.120476      	95.727066      	94.82063       	96.02185       	95.34874       	95.54823       	95.9329        	94.19698       	95.76384       	94.4534        	94.92331       	94.99414       	94.66061       	94.247795      	94.84184       	95.69842       	94.898476      	96.28878       	94.330185      	94.977135      	94.742195      	93.844345      	93.68889       	92.98601       	94.88771       	93.3686        	94.11214       	93.69538       	92.46392       	94.949265      	92.00196       	92.7651        	94.14214       	92.15119       	92.86323       	92.399185      	92.524345      	92.58623       	93.52263       	92.99373       	92.36594       	94.44887       	92.82283       	
91.58714       	92.18045       	93.88318       	94.20552       	93.15756       	93.27905       	93.19038       	92.6479        	93.58654       	93.466255      	93.84888       	92.70715       	93.45637       	92.01859       	92.36645       	94.347855      	92.06884       	93.293495      	94.071465      	92.312706      	94.05516       	93.44392       	92.65205       	93.95163       	94.290405      	94.93635       	94.20337       	94.105515      	94.4144        	94.36492       	94.35523       	94.97054       	93.8903        	95.81095       	95.289764      	95.0667        	94.84464       	94.64659       	94.92226       	95.37801       	95.23959       	96.17863       	95.21081       	95.03248       	96.07947       	95.5822        	95.35837       	96.04794       	94.46137       	96.90701       	95.16332       	96.38555       	95.39981       	94.63878       	96.505974      	95.79808       	95.61337       	96.04701       	95.27693       	95.947586      	94.83278       	95.62896       	95.60751       	95.16271       	96.30647       	95.53641       	94.82894       	95.42577       	95.00827       	95.46384       	95.471306      	95.18263       	95.20627       	95.81603       	94.89464       	95.641716      	93.98434       	94.43376       	94.1639        	93.67148       	94.69188       	93.888435      	94.76949       	93.16285       	93.5357        	94.087685      	93.29339       	94.59797       	94.51761       	94.41767       	94.12216       	93.06722       	94.71586       	94.96038       	94.823715      	96.08992       	94.46713       	95.5124        	94.57275       	94.24589       	
92.69661       	92.7138        	93.633255      	94.07802       	94.0286        	92.58912       	94.16511       	94.33892       	92.85052       	93.922714      	92.39617       	93.74614       	94.216324      	92.65518       	93.59615       	93.63726       	92.729164      	93.44673       	92.75971       	92.02144       	93.52393       	92.92428       	93.833405      	93.56267       	93.000725      	93.59267       	93.123116      	93.046684      	93.130264      	92.91094       	93.14464       	93.56114       	93.26847       	94.43686       	93.60892       	94.19304       	94.07085       	94.18055       	93.85648       	94.843254      	93.79753       	94.12812       	95.47428       	93.9351        	95.47039       	95.47381       	94.438965      	95.27946       	94.48392       	95.520294      	95.22782       	95.33782       	95.21516       	94.73738       	94.59807       	94.585396      	94.66572       	95.08991       	95.13745       	95.09036       	94.23062       	93.969406      	94.86442       	93.829384      	94.62431       	93.64711       	93.19333       	94.45861       	93.4624        	95.05998       	93.961494      	93.5887        	94.57406       	93.420006      	93.646935      	93.23331       	93.36583       	92.321236      	92.54656       	91.979034      	92.04883       	92.158844      	90.81109       	91.90845       	90.31465       	91.7458        	91.760284      	91.14061       	92.95844       	91.92756       	91.59099       	92.32227       	91.51668       	93.19463       	91.81143       	91.94669       	91.9043        	92.64216       	94.203926      	92.01108       	
93.769585      	92.65606       	92.372604      	92.97633       	93.44267       	92.39135       	92.99348       	92.42428       	92.5414        	93.692825      	93.58351       	93.77592       	94.23256       	94.63078       	93.64192       	94.64128       	94.933334      	92.90937       	93.749886      	94.19799       	92.48238       	94.69478       	92.07988       	94.20218       	92.67626       	94.89221       	93.22305       	95.84602       	94.49903       	92.877         	95.87664       	91.90575       	96.24666       	93.57329       	94.33346       	96.6788        	95.06771       	96.53613       	94.32276       	93.90581       	94.2828        	94.73693       	95.02449       	94.79329       	95.38867       	93.97119       	95.63612       	94.03087       	96.443245      	94.735794      	93.58405       	95.89934       	94.01087       	95.26294       	96.70262       	94.95197       	96.05724       	95.34535       	95.38001       	95.222046      	94.180534      	95.41887       	94.92927       	94.64037       	94.753         	94.9587        	94.817665      	94.60986       	95.09941       	94.22582       	95.43852       	95.04373       	93.044716      	94.9366        	94.088         	93.45175       	94.660515      	93.17297       	94.47057       	91.39437       	93.45862       	92.16052       	92.2445        	93.42379       	91.9948        	93.34279       	92.10168       	92.611626      	93.66761       	92.82234       	93.103714      	92.87908       	93.9921        	93.00731       	93.956055      	93.079185      	92.82828       	93.99674       	92.38338       	92.66878       	
92.48853       	93.57214       	92.91366       	91.886406      	92.29681       	92.33581       	92.760345      	93.621506      	93.31432       	93.88798       	93.855705      	94.74376       	93.913765      	92.7026        	94.4554        	93.47645       	93.816635      	94.18709       	93.37813       	94.68706       	92.40962       	93.491035      	94.042496      	92.59607       	94.49334       	93.62951       	93.09994       	93.54513       	94.11934       	93.55867       	94.16318       	93.80126       	93.75328       	94.18712       	92.96252       	95.51313       	93.441154      	94.2696        	93.98976       	93.13013       	95.715324      	94.62346       	96.11183       	95.8535        	94.991714      	96.4379        	94.33829       	95.61754       	95.42371       	95.228836      	95.10097       	95.311966      	95.4434        	95.14114       	96.21257       	94.689575      	96.28161       	93.542984      	94.88604       	93.83606       	93.50493       	95.43404       	93.79675       	95.12701       	95.271805      	95.778404      	95.286674      	95.51632       	95.53137       	95.56343       	96.03596       	94.5241        	94.62294       	93.0676        	95.28798       	94.32075       	92.68771       	96.06193       	92.19488       	94.61458       	93.4508        	94.09846       	94.457924      	93.53555       	94.163864      	92.65458       	93.824066      	93.46739       	93.437675      	94.20452       	93.3131        	94.20483       	93.48877       	92.91423       	93.87562       	93.5418        	94.11902       	94.07252       	93.69909       	92.99341       	
93.88747       	94.13876       	93.46569       	93.87269       	94.52033       	95.03071       	93.69877       	93.98869       	94.982895      	92.937294      	93.79607       	93.84289       	94.20635       	94.899216      	94.341644      	94.000114      	93.31245       	94.548996      	94.06926       	93.12762       	94.05127       	93.33629       	93.862625      	93.30153       	93.39697       	94.397064      	93.2465        	95.69589       	93.411064      	95.83341       	94.259895      	93.11945       	96.27214       	93.93088       	95.81247       	95.95037       	95.858734      	96.21678       	95.90946       	96.01723       	95.53419       	95.36268       	96.882256      	96.37206       	96.70769       	96.166275      	95.6424        	96.0358        	95.33416       	96.50591       	95.65809       	94.92357       	96.309006      	96.56381       	95.303505      	96.67699       	94.74186       	96.01017       	94.57692       	94.726204      	96.4544        	93.7712        	96.03329       	94.14995       	94.435684      	95.87976       	94.98726       	96.398575      	95.4956        	96.643555      	95.826675      	95.485466      	95.44466       	94.75314       	96.06157       	95.810585      	93.56851       	96.46491       	92.78235       	95.87226       	96.39731       	93.94036       	95.57352       	91.76053       	94.1171        	93.87052       	91.91346       	92.962616      	93.026665      	92.25025       	93.95008       	91.40465       	92.77846       	94.29819       	92.01293       	93.31447       	94.825645      	92.52673       	94.59733       	92.82793       	
92.14726       	92.86607       	93.85788       	94.278656      	91.97222       	93.53986       	94.968994      	91.48235       	93.80644       	94.07869       	93.50068       	94.837494      	93.093094      	94.619385      	93.84986       	92.897446      	94.67231       	93.66964       	94.22004       	94.08776       	94.89043       	93.790085      	93.805305      	94.28378       	93.68342       	94.92561       	93.0114        	94.72192       	93.27426       	93.03492       	94.39798       	94.264656      	94.67168       	94.98404       	94.70096       	94.24244       	94.82995       	94.27954       	94.87873       	94.09013       	94.58632       	94.12798       	94.02799       	95.03639       	94.66874       	93.68868       	95.08328       	93.0747        	96.58034       	93.39274       	94.48935       	94.70333       	93.58389       	95.582855      	93.994026      	95.30465       	95.16059       	95.14449       	95.88945       	95.20826       	94.90297       	95.27646       	93.57679       	95.10168       	95.21911       	94.682495      	95.2831        	94.15087       	95.208374      	96.43712       	94.651375      	95.28581       	95.458084      	93.30323       	94.46551       	92.565384      	93.89772       	92.47074       	92.86576       	92.81113       	92.99311       	93.294624      	91.715096      	93.46373       	91.89764       	91.72392       	91.96928       	91.62458       	92.446785      	91.13237       	92.51917       	92.360275      	92.51042       	93.60518       	91.894455      	92.455215      	93.91899       	92.950066      	93.32023       	94.03706       	
93.36939       	91.7953        	91.844986      	92.49349       	92.83911       	92.1091        	92.68857       	91.90965       	91.85865       	91.13741       	92.88532       	93.40267       	92.135994      	93.23234       	92.524124      	92.940865      	93.43192       	92.54011       	93.0294        	91.933464      	93.69105       	93.13011       	93.79133       	92.64412       	94.720955      	91.93196       	93.3065        	94.505615      	92.16971       	94.547134      	91.570114      	94.3306        	92.778755      	93.12111       	94.574814      	93.12993       	94.343315      	93.951256      	94.86646       	93.316444      	95.24724       	93.588005      	94.658035      	94.93413       	94.2862        	95.29269       	93.37456       	95.17081       	93.68263       	95.88797       	93.37781       	96.265396      	93.74885       	95.436226      	95.86921       	93.17481       	96.14317       	93.42688       	95.6259        	94.64934       	92.78022       	94.59581       	92.92829       	94.59383       	94.50951       	94.14161       	95.063126      	93.518524      	94.95196       	93.64054       	94.256714      	93.557755      	93.54489       	94.04587       	92.48091       	94.054         	91.38217       	93.139946      	92.7266        	91.688965      	93.22574       	91.32759       	93.44978       	93.2286        	92.27507       	93.77999       	92.99136       	92.54316       	92.8838        	92.99153       	92.18651       	93.22415       	92.14124       	93.07655       	93.80284       	92.86441       	93.72526       	94.7299        	92.89232       	94.54152       	
93.42015       	92.66317       	93.774864      	93.20152       	92.99135       	93.42724       	92.6643        	93.22067       	94.04883       	92.12675       	92.875175      	93.99621       	93.08077       	93.442085      	93.79257       	94.27791       	93.27852       	93.97415       	94.19622       	93.27795       	95.09738       	93.78593       	95.18908       	94.39262       	93.5004        	93.336464      	93.60009       	93.21691       	95.37682       	94.03337       	95.44266       	94.58647       	94.17915       	96.13744       	96.028496      	95.01839       	96.42408       	95.08314       	95.599686      	95.29818       	95.78763       	95.46712       	95.45949       	95.093094      	95.551994      	94.8486        	95.29973       	95.98816       	94.66777       	96.97591       	95.85921       	95.74883       	96.412384      	94.88576       	95.5671        	95.95246       	94.86633       	95.36034       	94.76237       	95.24501       	95.55978       	93.410446      	94.72728       	93.51732       	94.457504      	95.850204      	94.25218       	96.15927       	95.50402       	94.63156       	95.75815       	94.20949       	95.85031       	95.610954      	94.20942       	95.31038       	93.749435      	94.2367        	94.39423       	93.1045        	93.738235      	93.13249       	92.75184       	93.130646      	92.68706       	92.78746       	93.82706       	92.58631       	92.93256       	93.28641       	91.7149        	93.16171       	92.23492       	93.20531       	94.63205       	92.301796      	94.022934      	94.052124      	91.72199       	92.86236       	
92.91741       	93.21706       	93.131546      	93.62721       	94.331924      	93.44852       	93.70906       	93.749756      	93.70195       	93.678116      	93.792145      	94.44767       	93.86183       	93.612076      	94.39342       	93.76566       	94.13448       	93.661865      	94.393875      	94.03819       	94.56681       	93.38789       	93.8223        	94.52876       	92.94109       	95.71391       	93.23229       	92.79267       	94.34199       	93.36389       	95.45988       	93.602325      	95.78989       	95.101425      	94.2747        	95.667046      	94.560875      	94.938675      	95.67707       	94.95333       	94.82628       	95.454506      	93.784134      	95.34575       	94.325874      	94.38221       	95.44149       	93.468124      	95.26964       	93.59128       	94.51478       	95.320015      	94.385254      	95.51862       	94.4689        	95.31761       	94.60149       	94.84911       	94.343994      	94.37324       	93.67028       	94.473755      	94.80343       	94.18172       	94.954994      	94.73017       	94.37637       	95.870834      	95.03829       	94.92171       	94.873         	94.80863       	95.19336       	94.401764      	94.629814      	94.330986      	93.32114       	94.76409       	92.62944       	93.78996       	94.490715      	92.349556      	93.7872        	91.72448       	93.27199       	92.16957       	92.74952       	91.56676       	93.65508       	94.32038       	92.42427       	93.93549       	91.64896       	93.63469       	93.943436      	92.72754       	94.75866       	93.65987       	92.73702       	92.51972       	
92.94364       	93.18171       	93.28323       	92.70607       	93.1134        	93.698685      	94.46027       	94.18344       	94.231155      	93.672516      	92.85623       	93.569374      	93.60465       	93.50244       	94.00448       	93.49911       	94.059135      	94.21574       	94.87659       	94.11443       	93.853         	95.19083       	93.40504       	93.92133       	93.87769       	94.03007       	94.14921       	94.392654      	94.147896      	94.66418       	94.47204       	94.16216       	95.11894       	95.292465      	94.70324       	95.916916      	95.042694      	95.179985      	95.43822       	95.32643       	95.019684      	95.490166      	95.144936      	95.54172       	95.93967       	95.07801       	95.76401       	95.13696       	96.12069       	95.4499        	95.39825       	95.98056       	95.699615      	95.35547       	95.225655      	94.96313       	94.532555      	94.967026      	94.11559       	95.03227       	95.17233       	94.01498       	94.342804      	94.50664       	94.130615      	94.84954       	95.2353        	94.271515      	95.11148       	93.9683        	93.65974       	93.98817       	94.11026       	93.5894        	93.45822       	94.33782       	94.12654       	93.94946       	94.24694       	93.32719       	93.284515      	93.14489       	93.711266      	91.58627       	93.68962       	91.098755      	92.91841       	90.82159       	91.89963       	92.35594       	91.923874      	93.17301       	91.50497       	93.66004       	93.37548       	92.92613       	93.94902       	93.82019       	93.64046       	94.62849       	
92.1563        	93.36191       	92.71365       	91.969315      	92.53906       	92.89464       	93.27629       	94.43246       	92.79007       	94.689         	94.14072       	94.68102       	94.64652       	93.29263       	94.85027       	94.16682       	93.96318       	93.72853       	94.17325       	93.27348       	94.0028        	93.144394      	94.099335      	93.968925      	92.85765       	94.335785      	92.45946       	94.56196       	94.90465       	93.74987       	95.254845      	94.03039       	95.3214        	95.67041       	95.30727       	95.80871       	95.213425      	95.58514       	94.6056        	95.53028       	95.13925       	95.81355       	97.023285      	94.65441       	97.46607       	95.40645       	96.05887       	95.96525       	96.75614       	96.802666      	96.22677       	96.68049       	96.057655      	96.22714       	95.60233       	95.59575       	95.15081       	94.70039       	96.06463       	94.72316       	95.33261       	95.753876      	94.9951        	96.19888       	94.704834      	95.34607       	94.4784        	94.345695      	94.26065       	94.165054      	94.15974       	93.70999       	93.52832       	95.510796      	93.410576      	93.89346       	94.5791        	93.00724       	93.30457       	92.71884       	93.90064       	91.764885      	92.15622       	92.320015      	91.72244       	93.75947       	91.93077       	93.06982       	92.78109       	91.962494      	92.78735       	92.252045      	93.658516      	93.12538       	94.20333       	93.25537       	93.121635      	93.40913       	92.35119       	93.95698       	
93.72815       	93.56376       	92.130745      	93.04313       	93.51537       	93.71772       	92.685104      	93.31453       	93.985405      	92.68159       	94.79883       	95.01518       	94.11283       	94.80498       	93.27319       	94.60231       	95.62879       	94.03277       	94.93895       	94.52856       	93.84895       	94.76496       	94.75183       	94.430336      	94.626595      	95.4903        	94.34127       	95.83997       	93.76381       	94.47606       	95.34537       	93.89427       	95.55577       	94.349365      	95.35102       	95.3471        	95.0821        	95.23659       	95.284996      	96.236244      	95.26476       	96.462265      	95.75061       	95.39887       	96.27165       	95.14807       	97.00323       	94.75456       	95.80777       	95.085175      	94.756386      	94.9301        	94.543945      	94.431114      	94.320274      	94.436035      	93.79682       	93.50899       	96.3388        	93.94669       	96.50711       	93.3289        	93.71064       	94.88384       	93.506294      	95.16598       	94.57765       	94.363205      	94.89228       	94.705414      	94.08444       	93.44522       	94.875336      	94.4759        	93.841354      	95.20622       	94.799194      	92.21518       	94.81658       	92.04224       	93.812836      	91.3118        	93.2597        	92.198135      	92.70553       	92.16495       	92.54302       	92.019196      	92.50865       	93.970535      	93.658844      	93.132095      	93.65545       	93.31334       	94.21345       	91.55679       	92.71479       	92.8269        	92.400826      	94.44755       	
93.18454       	93.51469       	93.14737       	92.528076      	92.47637       	92.902504      	92.41369       	93.517876      	92.52646       	92.39947       	94.51843       	92.643974      	93.56637       	94.5962        	93.57783       	94.12609       	94.20259       	94.55344       	94.45874       	95.13709       	94.53136       	95.18902       	94.27588       	93.91342       	95.10564       	95.33377       	93.86661       	94.41206       	94.61159       	94.47558       	94.702644      	95.349846      	94.86978       	96.17578       	95.51567       	94.3363        	96.91812       	94.98429       	94.73938       	96.02648       	94.19569       	97.012695      	94.10351       	96.47865       	95.7898        	94.59449       	95.857574      	95.05705       	96.12944       	94.69775       	95.66127       	94.91196       	95.00172       	94.27117       	93.888435      	93.85656       	93.6685        	95.480225      	93.78438       	95.57614       	95.46066       	93.90347       	95.97054       	93.473785      	94.87613       	94.447754      	94.8564        	95.27178       	94.762054      	94.17497       	94.529755      	94.65878       	93.82954       	94.35605       	94.5856        	93.64117       	94.16639       	94.60219       	93.49512       	93.627655      	92.74477       	92.63391       	93.108086      	92.90639       	92.335464      	93.65886       	92.9348        	93.637764      	93.62305       	92.37599       	93.898285      	93.37887       	92.64629       	94.37318       	91.8921        	93.1799        	92.75028       	93.295525      	93.73168       	93.47079       	
92.58292       	92.65809       	92.69836       	92.61772       	92.929245      	93.52454       	94.317345      	92.87394       	93.72743       	94.15422       	93.507355      	94.635376      	94.14796       	93.851974      	94.33728       	93.9662        	94.003716      	94.45704       	93.64522       	94.42529       	93.99455       	93.859055      	93.9109        	93.924736      	94.32016       	94.84114       	93.81442       	95.26971       	94.70052       	95.137314      	95.03786       	94.18902       	94.52841       	94.78743       	94.41622       	95.37329       	95.49242       	95.15067       	95.412506      	95.796585      	95.50354       	97.091194      	95.69389       	96.03244       	96.313705      	95.495575      	97.11479       	95.489         	96.92933       	96.92423       	96.30185       	96.14377       	95.83997       	95.808014      	95.48644       	96.46889       	93.77487       	96.06373       	94.050644      	94.52058       	96.41379       	93.59173       	95.93932       	95.55645       	94.53991       	95.916275      	93.91361       	96.09173       	93.65625       	94.65231       	94.17233       	94.1619        	95.52829       	92.76425       	94.3828        	94.80041       	92.67665       	95.48489       	92.680504      	93.25644       	95.21689       	92.39026       	93.86656       	92.79786       	94.28052       	92.82866       	92.48337       	93.49756       	92.99329       	93.25041       	92.583405      	93.27213       	92.78746       	93.006355      	92.63447       	91.774414      	93.96192       	93.48857       	92.84239       	93.429825      	
91.68257       	92.44931       	93.28906       	93.196915      	92.43143       	92.745476      	92.89323       	93.14685       	93.0044        	92.686966      	94.486694      	92.7041        	94.32096       	94.898575      	93.37763       	94.61827       	94.2327        	93.975334      	95.17055       	95.31555       	95.14021       	94.73889       	94.71798       	94.70738       	94.58961       	94.79679       	93.898125      	94.981606      	93.70015       	94.14722       	93.743004      	94.73218       	96.71753       	94.996506      	96.038864      	97.26591       	95.13729       	96.52624       	94.61464       	94.96026       	95.45695       	95.29833       	96.36035       	96.08839       	94.3607        	95.26628       	95.07099       	95.49251       	95.98136       	94.743645      	94.60534       	96.69854       	94.81234       	96.240524      	94.88026       	95.964806      	95.30348       	94.4598        	96.87027       	95.552055      	95.070244      	95.57406       	95.093475      	94.50357       	94.76818       	94.8643        	93.5297        	95.05528       	93.50743       	93.60006       	94.84502       	92.96927       	95.0883        	95.171585      	93.721634      	94.04666       	94.44251       	93.467735      	93.74023       	94.194084      	93.71208       	92.69478       	93.39009       	93.159134      	93.0911        	93.83715       	92.884186      	92.211876      	93.531364      	91.941605      	92.63537       	93.29635       	92.17497       	91.72916       	93.74126       	92.86842       	92.69458       	93.47304       	92.06426       	93.25023       	
92.2896        	93.69886       	89.50484       	90.36099       	92.68918       	94.234116      	93.158325      	93.24531       	92.47139       	92.040115      	92.87907       	92.96422       	93.581856      	94.03768       	93.19658       	93.717735      	95.28561       	94.00306       	94.35777       	95.44504       	94.05115       	94.98839       	93.871635      	94.83873       	95.97213       	95.23912       	95.43126       	96.07758       	94.79041       	95.05746       	95.73439       	95.385826      	95.614426      	96.65616       	95.02494       	96.84082       	97.329796      	96.19258       	97.182755      	94.95928       	96.75127       	95.70075       	96.48161       	96.95116       	96.64253       	96.17848       	97.21337       	96.03036       	96.8934        	97.56652       	95.25919       	96.146484      	95.487175      	95.843575      	96.84973       	95.69168       	96.62127       	95.60291       	95.968155      	97.10657       	95.09991       	96.667305      	94.60465       	95.39665       	95.663536      	95.220146      	95.49024       	95.3475        	94.11401       	94.207794      	94.29072       	95.02215       	93.872025      	94.37774       	95.39811       	92.82598       	93.79318       	94.83561       	92.32315       	93.61868       	94.195786      	92.55769       	92.772446      	94.26513       	92.83448       	93.46632       	93.294464      	92.70806       	92.964874      	92.40585       	92.30472       	92.744545      	92.65709       	92.59329       	93.81148       	92.7292        	92.866264      	93.32622       	92.1407        	94.05863       	
92.561714      	91.880295      	92.0619        	91.67591       	92.20715       	93.99802       	94.93365       	94.324165      	92.930626      	92.80615       	94.512764      	92.31468       	94.86112       	95.06973       	94.08879       	96.259285      	95.33328       	96.12347       	95.57518       	93.887344      	95.60831       	95.09807       	94.270294      	94.70854       	95.05055       	94.92607       	94.05756       	95.351364      	93.43091       	96.214386      	92.701454      	94.45637       	96.92966       	96.09895       	96.69652       	95.61571       	95.4851        	96.259224      	95.29337       	95.706665      	95.81102       	95.6789        	95.45851       	95.79688       	94.47907       	95.09124       	95.21274       	94.51671       	96.876495      	94.65593       	95.1446        	95.99183       	94.26607       	95.92188       	94.06552       	95.316536      	93.48478       	95.29567       	95.11394       	93.561         	96.059906      	92.852425      	95.65804       	94.15922       	94.56825       	95.020515      	93.7015        	94.73842       	93.59941       	93.85867       	93.5399        	93.7531        	93.716675      	93.58223       	93.59724       	94.06888       	92.78132       	92.99632       	93.95125       	92.83639       	93.003         	94.60468       	92.71214       	93.11262       	93.523         	92.89537       	92.38101       	93.764694      	92.77552       	93.79998       	93.54227       	93.635826      	93.9781        	93.44534       	93.24368       	93.25306       	93.78096       	92.26897       	94.25651       	93.10147       	
93.26259       	93.54261       	90.90104       	91.85188       	93.16476       	94.34946       	94.591415      	92.52143       	92.97426       	93.077644      	93.2033        	93.97033       	91.78228       	94.48616       	95.29932       	93.29414       	95.35176       	94.22259       	93.888916      	94.54411       	94.5658        	94.2304        	94.61035       	93.51          	93.54332       	94.887985      	93.48894       	94.48841       	96.1254        	93.51839       	95.06977       	95.67034       	93.58772       	95.426025      	95.400276      	95.39676       	96.01149       	95.03008       	95.55563       	95.486435      	96.09266       	95.33573       	95.91911       	94.452896      	94.71619       	94.471306      	94.36967       	95.573906      	94.062996      	96.40439       	94.76659       	95.521164      	96.17302       	94.45763       	95.426476      	95.60152       	95.29869       	95.349174      	95.11336       	95.145454      	94.82694       	94.92559       	94.10916       	95.31303       	93.41554       	94.13286       	95.32127       	93.05151       	94.2181        	94.51002       	92.88932       	95.49429       	94.37686       	93.248276      	94.13045       	93.8578        	93.49429       	93.33637       	93.16491       	93.01142       	92.76221       	92.95677       	93.44206       	93.302734      	93.06286       	92.45365       	93.30941       	93.659515      	92.51246       	93.91139       	94.111725      	93.16887       	93.041336      	94.61646       	93.15236       	92.98983       	94.084236      	94.1494        	92.85364       	93.74573       	
92.92117       	94.837326      	90.02192       	92.36247       	94.31569       	94.2611        	93.828445      	94.4012        	93.101105      	93.73656       	94.66955       	94.593315      	92.65297       	94.011444      	95.72484       	94.999016      	95.109344      	94.42668       	93.78765       	95.21341       	93.642715      	94.143715      	93.33846       	93.48443       	94.99764       	93.24559       	94.71068       	95.982864      	94.257195      	95.17475       	95.36201       	93.99965       	95.85636       	96.77878       	94.73422       	96.650505      	96.69271       	96.19869       	96.700874      	94.56086       	96.89849       	96.74818       	95.64083       	97.19939       	94.68269       	96.72403       	94.926605      	95.92278       	96.54466       	95.42729       	96.89588       	95.973015      	96.52986       	95.29682       	95.4548        	95.203445      	95.03397       	96.63396       	93.63249       	95.90315       	94.35921       	94.62587       	95.07651       	93.40904       	94.8007        	95.31127       	94.119026      	95.492         	95.40942       	96.011246      	95.0005        	93.759346      	95.00883       	93.970146      	94.42099       	95.127045      	94.13587       	93.371216      	94.801544      	93.64568       	93.18041       	93.67349       	94.57788       	94.20135       	93.372         	93.85424       	94.40153       	92.53224       	92.731964      	94.58179       	93.48626       	92.5649        	93.60219       	94.06853       	92.82601       	93.83074       	93.72841       	93.03929       	93.76957       	93.89584       	
91.60582       	93.195755      	92.60078       	92.373245      	93.3083        	94.37127       	91.71496       	93.74852       	94.34514       	93.52417       	92.71693       	92.96068       	93.687164      	94.34698       	92.064095      	93.74045       	95.7635        	94.12904       	94.72309       	93.94264       	93.93104       	94.88902       	93.194244      	95.115036      	96.38669       	94.70499       	95.79648       	95.16369       	94.31707       	95.65706       	94.12177       	94.32237       	95.78084       	94.396774      	95.52152       	96.29365       	95.602325      	96.48862       	95.36113       	96.23844       	95.85329       	95.49892       	95.71803       	95.09006       	95.33644       	96.28175       	95.69381       	95.95288       	96.06946       	96.33053       	95.82324       	96.140656      	96.0738        	96.01852       	95.58629       	94.31945       	96.33348       	94.55017       	95.02197       	96.00487       	94.09811       	94.70251       	95.35938       	93.9763        	94.41694       	95.03491       	93.7597        	93.653946      	94.89051       	93.902824      	94.755         	94.645294      	94.53369       	93.87023       	94.4757        	93.91813       	93.777916      	93.91009       	94.86595       	94.3958        	93.22778       	94.85139       	94.11728       	92.15888       	93.68605       	94.25879       	92.04076       	93.63964       	93.35588       	93.36595       	92.87369       	94.09785       	93.54206       	93.05492       	93.71038       	93.84555       	93.412735      	93.75965       	94.18961       	93.69986       	
92.2506        	92.74383       	92.79912       	93.63538       	95.37663       	92.14436       	93.00028       	95.08939       	95.35392       	95.08764       	93.97485       	94.31508       	95.134315      	95.98363       	93.00284       	94.68092       	96.01062       	94.9209        	94.24691       	94.86452       	95.266884      	95.832405      	95.32979       	95.67076       	96.37955       	94.94611       	94.85364       	96.98796       	95.79256       	97.551056      	97.23338       	96.90254       	96.12938       	95.7126        	95.59429       	95.72132       	98.36342       	95.3147        	96.4738        	98.33426       	95.69897       	97.42346       	96.67824       	96.56043       	97.299644      	97.22122       	97.58956       	96.682365      	97.250244      	95.84518       	98.34419       	96.8149        	95.766754      	97.49883       	95.474045      	96.55313       	95.65968       	94.48014       	97.17208       	94.08922       	95.00835       	96.82404       	93.67937       	94.76048       	96.719536      	94.089554      	93.90257       	95.52067       	95.328964      	93.548386      	94.947586      	95.42015       	93.35855       	94.0885        	95.39624       	94.5255        	92.82752       	95.1303        	93.755356      	93.574295      	94.2588        	94.55356       	93.50025       	93.093796      	94.226814      	93.33488       	94.08714       	93.36325       	93.59413       	94.50708       	92.886894      	94.775764      	93.28181       	93.656624      	94.56064       	93.00619       	93.64366       	93.60993       	92.55509       	92.846         	
92.7045        	93.906906      	93.96696       	93.99923       	91.26594       	92.304146      	93.65313       	93.63354       	93.888336      	92.66483       	93.33525       	94.81632       	96.1523        	92.49223       	94.31731       	94.85954       	94.77372       	93.93151       	94.02208       	94.34267       	95.16617       	95.41633       	94.3416        	95.067795      	96.20047       	93.87037       	96.91252       	95.92115       	94.3698        	95.56836       	94.8441        	95.4265        	95.07617       	95.879234      	94.97383       	95.29159       	96.63444       	97.4492        	95.17601       	95.84374       	95.70588       	95.38454       	95.48725       	96.11528       	95.82931       	96.15941       	96.16129       	95.52994       	96.594986      	97.14514       	94.761024      	96.22334       	95.358086      	95.84032       	96.51329       	95.63412       	95.3787        	95.87305       	94.05633       	95.45724       	94.41414       	94.00422       	94.97628       	94.60681       	93.58159       	94.77246       	94.66132       	93.91784       	94.04538       	94.62221       	94.18209       	93.43019       	93.94531       	94.22313       	93.24605       	92.98937       	93.96846       	93.75609       	93.50736       	93.73903       	93.405975      	94.003586      	92.96205       	92.98366       	94.19611       	93.56428       	92.18553       	94.12896       	91.92864       	93.818634      	93.693474      	92.26513       	93.57049       	92.95959       	92.35078       	93.16237       	93.48632       	92.27748       	92.37514       	92.565506      	
92.53647       	93.34279       	94.07417       	90.51073       	91.41455       	92.36435       	92.78181       	94.14552       	94.71137       	92.43518       	94.65096       	94.70855       	94.64747       	91.608025      	92.85252       	95.19233       	94.95227       	93.01201       	94.01045       	93.658745      	95.06905       	95.73291       	94.36764       	95.97853       	96.668045      	94.51674       	95.52657       	97.28194       	97.00414       	96.25032       	96.02635       	95.529205      	94.732254      	94.387314      	97.58704       	94.24967       	96.26622       	97.71596       	95.18001       	96.78342       	97.46064       	95.44252       	96.38316       	95.531296      	95.65861       	96.32851       	96.63884       	95.97354       	97.20877       	96.35506       	95.73689       	96.94972       	94.97472       	95.25253       	96.43408       	94.20656       	95.67296       	93.932976      	94.67868       	94.85742       	94.6589        	94.06372       	94.08485       	94.08728       	93.835785      	93.67177       	94.47753       	94.65483       	93.06706       	93.96261       	94.56201       	93.457306      	93.53111       	94.42825       	93.50427       	92.79133       	93.63685       	93.72537       	93.302864      	93.83625       	93.21851       	93.9061        	93.400116      	92.62865       	94.08472       	93.89159       	93.22583       	94.24649       	92.49177       	94.18523       	93.88487       	93.571465      	93.73945       	93.03195       	93.73225       	94.12459       	93.01489       	94.16959       	93.87947       	93.05603       	
93.332535      	93.362076      	93.31086       	90.69095       	91.313835      	91.808365      	92.82625       	94.40291       	94.381905      	93.093765      	94.26465       	94.38988       	94.38124       	91.97095       	92.6878        	94.07357       	95.88576       	93.642075      	94.29503       	95.54434       	95.937         	96.03856       	94.61624       	95.81726       	96.84401       	94.8705        	95.25585       	97.20455       	97.33161       	96.142166      	97.05533       	96.28502       	96.39186       	96.0844        	96.1021        	95.8319        	95.27337       	97.33974       	96.41643       	97.14006       	97.677666      	96.25377       	96.97655       	96.251335      	97.21297       	95.47999       	97.71605       	96.16191       	97.45074       	96.57183       	95.84346       	96.86146       	95.4742        	94.98994       	95.496346      	96.06217       	96.22914       	95.712364      	95.75089       	94.40103       	95.393364      	94.2249        	94.51916       	95.589386      	94.71          	94.20149       	95.15617       	94.98564       	94.92018       	95.013435      	94.88494       	94.42484       	94.233955      	94.583824      	94.524376      	94.2112        	94.07353       	95.179306      	94.24068       	93.824776      	94.2247        	94.314         	93.848946      	93.75798       	93.509674      	93.917366      	93.46681       	94.02291       	95.36392       	93.65027       	94.49703       	93.18087       	94.010025      	94.63273       	94.155846      	93.70943       	95.15317       	93.90595       	93.71176       	94.78096       	
91.8353        	93.0301        	94.027794      	95.06442       	90.08865       	92.00871       	92.92311       	92.64673       	93.88484       	95.40693       	92.58139       	94.626755      	94.40401       	94.426476      	92.01566       	92.88038       	94.595245      	95.46117       	93.40345       	93.73377       	94.78321       	95.395294      	96.330605      	95.32634       	94.631226      	94.772865      	93.62485       	94.21315       	96.056656      	96.672356      	95.022224      	95.743645      	96.539925      	93.44249       	95.562515      	96.65238       	96.139275      	96.69847       	95.678635      	96.131676      	94.90331       	95.35838       	97.077705      	95.08104       	96.325554      	95.11656       	94.10638       	96.24752       	95.913506      	97.1897        	95.948616      	96.14831       	96.412544      	94.56943       	96.589836      	94.13485       	96.222664      	95.843056      	93.26891       	94.70919       	96.54567       	93.37114       	93.748085      	96.4637        	93.6003        	93.89194       	95.96208       	94.51191       	93.32629       	95.18659       	93.98535       	93.16717       	94.929306      	93.49623       	94.383804      	95.00007       	93.5056        	93.66957       	94.9548        	93.36661       	92.96081       	94.98869       	94.03282       	92.12789       	93.68619       	93.0055        	92.77357       	93.66985       	93.400024      	93.462845      	92.76128       	94.583855      	93.103355      	92.99097       	94.360886      	92.815254      	93.09266       	95.04866       	92.57495       	96.14378       	
90.5835        	92.163895      	93.96629       	95.52403       	94.86918       	94.27154       	92.64073       	92.420395      	95.05915       	96.54345       	94.76592       	93.49147       	93.78837       	95.19211       	96.19584       	92.32396       	94.08686       	95.74864       	95.86998       	96.09262       	93.91212       	95.375336      	97.10149       	97.60351       	95.15861       	96.8144        	96.71014       	95.151665      	96.53764       	97.26514       	95.46319       	96.9066        	96.6296        	96.925674      	94.662186      	95.47525       	98.30588       	99.032394      	96.096054      	97.39515       	95.608025      	96.32906       	96.10543       	95.53388       	96.82012       	95.13008       	96.93204       	96.49313       	95.38306       	96.747955      	96.13052       	96.10562       	96.78313       	96.458786      	95.79516       	96.70533       	96.33471       	95.07344       	95.47438       	94.36918       	95.53889       	95.536064      	94.18311       	94.78934       	95.433014      	94.534164      	94.34492       	95.87151       	93.898895      	93.499115      	95.40423       	93.772064      	93.033615      	94.69759       	94.6871        	93.04631       	94.41737       	95.14699       	93.11839       	93.722305      	94.726616      	92.60265       	93.13329       	94.197426      	92.3763        	92.60654       	93.10628       	92.45389       	92.59017       	92.65248       	93.427536      	93.71249       	93.13457       	92.72506       	94.51846       	92.53084       	94.32118       	93.08186       	93.94014       	92.46406       	
94.10204       	87.94386       	90.33428       	93.02829       	93.68587       	92.846725      	93.2988        	91.23101       	92.314804      	93.82244       	94.75599       	94.55958       	91.768715      	94.25761       	94.6562        	94.600235      	92.26224       	93.11545       	95.99776       	96.63841       	94.960724      	93.48954       	92.675766      	96.3752        	97.774055      	95.180336      	96.32752       	93.64792       	97.19255       	93.091934      	95.21321       	98.835075      	97.77055       	97.39616       	97.356964      	95.19389       	95.75578       	93.302376      	96.4489        	98.0689        	94.134636      	96.77715       	96.85219       	96.636444      	95.66344       	96.23148       	95.33989       	96.165115      	96.255684      	95.46416       	96.72469       	96.07919       	94.78783       	97.17994       	94.16101       	96.48532       	94.472206      	95.69629       	95.472786      	94.09469       	95.210236      	95.32347       	93.8311        	96.38583       	95.20611       	93.381676      	95.67508       	95.98276       	92.76796       	95.140495      	96.295425      	92.51956       	93.467476      	95.44374       	92.72051       	92.85494       	94.50811       	93.45959       	93.212265      	94.45488       	93.32463       	93.86898       	93.92168       	93.05547       	94.071335      	93.514885      	93.159424      	94.74812       	94.11095       	93.02658       	94.25733       	94.6401        	92.06653       	93.55897       	94.63883       	93.58598       	93.961296      	93.15356       	93.09655       	93.66275       	
88.13072       	88.18433       	90.455154      	91.61353       	92.36496       	92.83415       	94.194565      	91.00772       	92.6512        	94.02771       	95.51622       	95.784805      	94.13549       	94.35644       	94.64155       	96.74105       	92.05924       	94.678085      	96.44226       	95.15157       	96.010345      	91.908905      	94.017624      	96.99325       	97.3706        	95.441025      	95.56512       	94.68019       	96.66874       	94.1197        	96.168755      	96.73473       	96.372795      	95.15445       	95.240974      	97.87663       	92.83219       	96.65593       	97.25575       	94.70942       	96.14943       	93.18102       	96.23369       	94.85373       	94.802055      	97.182144      	94.212776      	94.87706       	94.82863       	95.582726      	96.31741       	95.06706       	96.3468        	94.052284      	95.162346      	93.03694       	93.22094       	94.82267       	92.77387       	95.87365       	93.617294      	96.50241       	96.55746       	93.62591       	96.915665      	92.10882       	94.53259       	95.92811       	92.07498       	94.519356      	95.31711       	92.48743       	93.90097       	93.90274       	92.925446      	93.71467       	93.517296      	92.85475       	93.556206      	92.86976       	92.62159       	94.17827       	92.39151       	92.75537       	94.66666       	93.1313        	92.51908       	95.00499       	94.04259       	91.86107       	94.77217       	94.500114      	92.42874       	94.04404       	94.13583       	93.33289       	95.30977       	93.526054      	94.20424       	94.20682       	
91.613235      	93.50426       	94.46614       	94.633064      	91.89655       	92.60177       	94.33138       	95.451225      	95.494255      	93.4087        	93.2703        	94.124954      	96.98836       	96.148926      	94.64709       	93.71121       	94.33704       	97.843864      	92.947876      	95.93145       	96.540245      	95.55805       	97.87996       	93.22749       	95.71871       	97.592545      	97.39998       	95.458206      	96.10467       	98.021645      	97.86636       	96.65567       	96.60695       	96.615395      	97.801346      	94.88119       	98.1008        	97.75172       	96.75664       	96.98894       	94.44503       	96.16675       	95.33606       	97.32288       	98.171104      	96.780045      	97.418144      	96.207016      	96.919205      	96.80519       	97.45643       	95.42948       	96.422516      	95.6125        	96.04235       	96.99113       	94.663925      	95.80354       	93.83215       	94.66772       	94.26458       	93.7461        	94.466354      	95.173744      	93.77987       	94.69359       	93.83745       	94.45098       	94.54941       	93.794975      	94.573654      	93.53901       	92.58476       	94.191086      	94.186485      	92.34399       	94.86564       	92.54687       	93.64421       	94.493805      	92.46208       	94.53931       	95.046265      	92.65263       	94.48938       	94.575424      	93.08654       	93.83931       	94.29252       	93.27363       	93.4572        	94.62744       	93.05848       	93.846855      	93.9119        	94.38239       	94.75621       	92.890816      	93.40974       	94.90678       	
92.422         	91.98319       	92.13794       	93.88372       	96.69824       	90.73847       	94.22599       	95.23503       	93.451996      	96.366196      	90.11577       	94.87277       	96.50672       	93.47395       	95.139404      	91.31592       	94.36392       	97.75402       	96.14301       	94.62696       	94.163765      	95.912895      	97.31627       	97.615555      	94.51066       	95.49358       	98.10943       	97.75507       	96.56828       	96.68765       	96.151764      	100.19267      	94.40592       	97.78404       	99.02355       	96.27157       	96.56611       	95.833305      	97.73172       	94.33586       	95.74287       	96.784386      	97.0773        	95.71019       	96.586555      	97.22746       	95.657074      	95.32887       	97.94833       	95.922905      	96.606964      	94.939896      	95.65674       	95.9421        	94.97974       	95.43489       	95.15333       	94.81621       	95.175934      	94.37398       	94.26004       	95.621635      	94.2789        	94.31819       	95.43513       	94.822136      	94.29754       	94.74506       	95.11598       	93.70297       	93.90685       	94.23659       	94.9117        	93.51831       	94.24106       	94.3147        	92.90531       	93.268906      	94.44023       	92.96095       	92.150116      	94.10845       	93.90531       	92.609184      	93.4034        	93.79149       	92.814835      	93.389885      	92.79849       	93.151085      	93.39375       	92.4829        	93.1432        	93.85223       	92.195526      	94.11946       	92.22801       	94.055         	94.33339       	93.19141       	
96.29742       	90.17379       	92.139         	94.33663       	95.328         	94.78612       	95.36381       	92.16251       	92.30232       	95.44735       	96.428955      	94.85784       	92.52032       	93.8901        	95.333084      	96.149254      	96.08439       	92.91825       	95.199615      	97.08212       	95.88871       	94.0944        	93.18499       	95.939316      	98.21432       	98.22742       	96.08838       	95.87137       	96.74109       	98.32441       	95.22367       	96.28077       	97.83594       	98.098076      	96.010956      	96.58272       	98.52664       	94.80794       	97.17216       	97.450554      	97.27084       	96.27312       	95.77121       	96.84067       	95.95378       	96.040085      	96.019005      	96.377655      	95.94765       	96.26941       	95.81165       	96.24794       	95.02438       	95.61478       	93.951225      	94.91759       	94.56721       	93.61779       	95.26514       	93.94345       	95.947845      	94.77893       	93.67365       	96.51181       	94.258995      	93.46094       	95.55839       	94.16122       	93.5844        	94.91871       	95.222984      	93.56359       	95.55711       	94.26074       	93.66779       	94.39649       	93.80732       	93.25758       	94.048874      	94.319496      	93.9384        	93.253006      	94.55908       	93.34632       	93.30333       	95.01537       	92.36795       	92.910805      	94.772354      	92.87314       	92.84193       	94.65642       	93.36778       	92.92514       	92.97543       	93.2733        	92.664604      	93.37038       	92.50106       	92.75597       	
89.73116       	88.77657       	89.91039       	93.85216       	96.02388       	93.624794      	93.09468       	91.77426       	92.41053       	96.56685       	96.73922       	93.994644      	92.94327       	95.05409       	97.44798       	96.22088       	93.90213       	92.79997       	95.90351       	97.98722       	94.832726      	95.37145       	93.52428       	96.3005        	98.67154       	95.24342       	97.20883       	94.770226      	96.696         	94.136604      	96.128586      	96.6042        	96.3573        	95.20667       	95.42492       	97.762054      	97.51954       	96.63632       	95.86165       	96.19059       	94.06892       	94.574104      	96.42033       	98.0191        	95.47893       	97.17022       	95.12081       	96.42233       	97.1322        	94.84277       	96.32274       	96.54611       	94.70643       	95.56648       	94.63148       	94.63404       	94.68887       	94.76805       	94.19048       	95.450676      	93.5966        	93.72157       	94.52974       	94.22327       	93.70751       	94.93141       	93.676895      	94.654335      	95.023895      	92.96094       	94.68747       	94.77021       	92.475876      	95.6558        	93.124405      	93.887695      	94.22323       	92.27755       	94.05144       	94.34216       	93.292274      	94.08805       	93.21742       	93.16163       	93.81143       	92.90248       	93.31161       	94.748405      	92.7921        	92.76115       	95.12566       	93.30616       	93.16843       	94.4989        	93.38676       	92.93303       	93.751045      	93.177055      	93.13939       	93.97179       	
91.16702       	91.580605      	93.33395       	95.00601       	89.29875       	91.81947       	93.94235       	94.1121        	94.214874      	91.20521       	91.62564       	93.66683       	95.38285       	95.955376      	93.22657       	93.536575      	95.33057       	97.05309       	97.928505      	94.5606        	96.654335      	96.50703       	97.04854       	93.8442        	95.870926      	98.27369       	99.017105      	98.068474      	97.571335      	97.20143       	98.012825      	99.27174       	96.98143       	98.0482        	99.17985       	95.71179       	97.89354       	97.96719       	98.13028       	96.83949       	98.00723       	97.67915       	98.185844      	97.649734      	97.733925      	97.55927       	97.96367       	97.53539       	98.66181       	98.4586        	97.827354      	99.72644       	96.405235      	97.97142       	95.71335       	95.99901       	97.21315       	94.940315      	98.02758       	96.25844       	95.314156      	97.09387       	95.83525       	96.84051       	96.63163       	94.93193       	96.878975      	95.50167       	95.59696       	95.185585      	95.23195       	95.4957        	94.65203       	94.977036      	96.49053       	93.28439       	94.48524       	95.687416      	93.47887       	93.20977       	95.24096       	94.69705       	93.36605       	95.72739       	95.23862       	92.90333       	93.94011       	94.298225      	93.06212       	94.16112       	93.72184       	93.868195      	93.74902       	93.5853        	95.47771       	93.279816      	95.03833       	94.19272       	94.593796      	95.63807       	
91.40674       	90.73739       	91.35487       	93.882195      	96.129684      	95.56757       	94.025276      	92.90414       	92.69736       	97.08854       	97.57884       	95.06266       	93.908005      	92.04615       	98.471634      	90.89149       	96.13321       	96.594185      	94.30205       	95.80439       	92.95146       	96.3829        	96.8328        	96.33702       	93.560005      	94.98732       	97.987076      	96.97384       	96.48282       	94.555786      	95.40935       	99.41527       	94.44038       	97.96297       	97.44522       	95.95169       	95.02471       	94.8348        	96.93584       	97.3501        	95.64525       	95.600426      	96.02229       	94.68129       	96.081696      	97.77116       	94.10314       	97.44939       	98.20597       	94.39418       	96.947334      	92.80484       	95.934555      	93.12479       	92.51834       	95.87462       	93.19405       	96.24635       	94.23073       	94.81951       	96.61313       	91.58168       	96.11255       	93.14442       	94.51738       	95.54414       	90.76733       	96.359375      	93.02901       	92.313675      	96.61522       	92.051865      	93.11844       	96.448326      	92.349365      	92.495735      	95.54488       	91.87699       	94.0217        	96.56951       	92.254555      	93.58039       	93.9874        	91.77865       	94.89245       	91.90487       	93.131485      	94.40459       	91.87683       	94.53235       	93.07205       	92.5376        	95.10788       	92.64306       	94.12943       	91.915245      	93.61098       	94.23425       	93.18291       	93.58761       	
93.890884      	92.23223       	91.97172       	93.68278       	94.71709       	89.82748       	92.96286       	95.153694      	93.58675       	92.2826        	91.11385       	94.15435       	96.95752       	96.02232       	94.50419       	94.54039       	94.824295      	96.93324       	92.85311       	94.95322       	95.198494      	96.58928       	94.5678        	95.25526       	96.41419       	96.646         	94.66157       	94.76199       	96.992874      	98.58298       	97.266525      	96.86434       	97.06206       	98.005035      	98.401695      	95.52376       	96.2636        	97.00614       	94.736465      	95.20566       	97.36148       	97.149956      	96.75          	97.75061       	96.08167       	97.6491        	96.68441       	95.59005       	96.807724      	95.0338        	95.537384      	94.95528       	95.35156       	95.9305        	94.62364       	94.28341       	94.52077       	94.44557       	93.66314       	94.38683       	93.23973       	94.14482       	93.3142        	93.70369       	97.139534      	92.910355      	95.48099       	94.740585      	92.858925      	95.04297       	93.80208       	93.76135       	93.264885      	93.3367        	93.72246       	92.776505      	93.33618       	94.45979       	92.35744       	94.201706      	94.71223       	92.78381       	93.663826      	93.94957       	91.870766      	94.183876      	94.175896      	92.89992       	95.04118       	94.04102       	93.20479       	95.086624      	93.859955      	94.087105      	94.34588       	94.37448       	94.89794       	94.15775       	95.03915       	93.24279       	
92.269684      	88.514854      	87.35265       	89.59321       	94.28862       	94.98172       	92.25694       	92.145805      	90.1562        	93.488106      	95.56925       	91.06527       	93.11157       	92.95796       	93.46252       	91.83636       	94.91637       	95.29131       	94.59443       	92.04362       	92.50046       	95.32738       	96.387436      	94.03874       	94.97771       	94.13276       	96.20322       	92.06059       	94.059586      	96.95728       	96.806076      	94.88105       	94.89483       	95.62355       	96.99638       	94.06796       	94.69087       	95.31055       	97.03537       	93.17514       	95.432365      	97.00626       	95.79415       	96.76091       	95.02217       	93.86161       	96.49358       	93.274895      	96.84595       	94.142204      	92.9578        	96.38368       	93.55908       	96.31678       	94.96778       	93.89775       	94.84593       	93.36052       	94.099686      	93.71695       	93.06726       	94.27975       	92.641846      	93.602615      	94.05696       	93.04834       	93.21009       	95.19323       	92.52258       	94.216934      	94.43216       	92.81881       	93.67571       	94.2095        	92.57785       	94.78612       	92.96318       	92.42359       	93.81323       	92.05773       	93.78353       	93.29484       	92.263176      	92.49496       	93.43909       	92.06376       	93.24264       	93.41234       	92.04796       	92.46245       	93.450264      	93.29459       	92.8525        	93.75394       	93.48699       	93.05818       	94.20344       	92.19636       	94.50816       	94.654         	
90.63709       	90.88872       	91.19614       	91.38789       	92.515594      	95.017105      	91.100105      	93.41007       	94.42924       	95.294106      	93.54927       	94.54374       	94.56481       	95.27819       	93.43632       	94.0215        	96.87263       	96.81331       	95.05048       	93.42716       	94.08919       	97.368935      	97.96898       	95.331665      	96.23146       	96.06722       	97.14967       	94.99222       	95.66318       	96.350105      	97.32706       	95.10578       	96.5797        	98.40392       	97.512         	96.09825       	96.7317        	96.409225      	97.76861       	96.1116        	96.547226      	97.778206      	96.31766       	97.07277       	97.5216        	97.96286       	96.21767       	96.61418       	96.93111       	96.44615       	96.54691       	95.83484       	94.96369       	96.50318       	94.84441       	97.21929       	95.44709       	96.26315       	96.43221       	95.28665       	96.29309       	96.24052       	94.89141       	96.62233       	93.57801       	95.132515      	95.25123       	95.01881       	95.11192       	95.35326       	95.394325      	94.545364      	95.39491       	94.28527       	93.58371       	94.27848       	93.26789       	94.814095      	93.71631       	94.055984      	94.043686      	94.76513       	93.5321        	94.39409       	94.64257       	93.328545      	94.489914      	94.460785      	94.165         	93.83013       	94.818115      	94.425865      	94.45374       	94.86246       	94.22362       	94.982956      	93.52337       	95.496895      	94.85669       	94.26439       	
91.925385      	93.74136       	93.30397       	92.82878       	93.708405      	91.602455      	92.39809       	94.08805       	95.01786       	92.323975      	94.43127       	94.632095      	94.600395      	93.57942       	93.79522       	94.8468        	97.49983       	92.92018       	95.39448       	95.60531       	95.469765      	93.431366      	94.46087       	95.18529       	96.20698       	93.7072        	94.57262       	97.54378       	98.62645       	94.818634      	96.27792       	95.288445      	97.20447       	98.954796      	94.553535      	97.17773       	94.9783        	94.897896      	93.30401       	94.06729       	97.39848       	97.53201       	96.43383       	96.54854       	95.708824      	95.57921       	95.37135       	95.89732       	94.59897       	95.68216       	95.25975       	95.00371       	96.39324       	93.96579       	95.468735      	93.44667       	94.124016      	94.45413       	93.395065      	94.194565      	93.78787       	94.09115       	94.59401       	94.074814      	94.32194       	93.95467       	94.14196       	94.36171       	93.40518       	94.00514       	94.111694      	92.30944       	94.15526       	93.48312       	93.417465      	93.991455      	94.029175      	93.327095      	93.86844       	92.38334       	93.309364      	93.738594      	92.55526       	93.1599        	94.18567       	93.348915      	94.47151       	93.3274        	93.02828       	93.76541       	94.24769       	92.951294      	94.00163       	94.07779       	93.526855      	94.060616      	93.20634       	93.03389       	93.105484      	93.09073       	
90.950386      	92.91713       	94.363754      	95.656586      	94.77375       	93.15477       	93.7454        	93.94015       	94.97367       	92.30022       	94.38285       	95.40974       	95.99402       	94.198456      	95.03144       	96.84992       	93.44547       	95.52349       	95.8839        	95.83902       	94.747665      	94.615486      	97.14421       	98.91963       	95.124275      	96.937         	96.028595      	96.90319       	94.570404      	95.5392        	97.278046      	97.70222       	93.82445       	95.33552       	96.08008       	96.836075      	94.41857       	94.3709        	95.675285      	97.27336       	97.74246       	95.33283       	96.83692       	96.081314      	96.38221       	95.91753       	96.59881       	96.04279       	95.64226       	96.117386      	95.261894      	95.95369       	94.351875      	96.179924      	95.419624      	95.849724      	95.53923       	94.22287       	96.00288       	94.85673       	95.15287       	95.13855       	93.69954       	95.30879       	92.626884      	93.926186      	94.75008       	92.46213       	93.97564       	93.49356       	93.27904       	92.60533       	94.04898       	92.01905       	93.66399       	94.81585       	92.89014       	95.3316        	93.8342        	94.59632       	94.40023       	92.17933       	94.0358        	92.932465      	92.325966      	93.69887       	93.15597       	94.65524       	92.51876       	93.14616       	94.399124      	93.380905      	93.41147       	95.192345      	94.36091       	94.3268        	95.177216      	93.404106      	94.74279       	95.29094       	
93.75727       	91.504105      	92.066246      	93.33149       	94.156         	92.34169       	93.3966        	94.55092       	94.79363       	93.52501       	94.80453       	96.930855      	92.87471       	95.720085      	96.13565       	95.33753       	93.99849       	93.715836      	97.42902       	92.9875        	96.05751       	97.667725      	96.09534       	95.10875       	95.42773       	97.60495       	98.13427       	95.67159       	97.07149       	96.36907       	98.18431       	92.469536      	95.63505       	97.72709       	95.99669       	95.64985       	94.376465      	95.635445      	98.1331        	95.018364      	96.36023       	96.027596      	96.55509       	94.28899       	96.49273       	98.02286       	94.559685      	97.02193       	96.031075      	95.02042       	95.531296      	94.396576      	93.73184       	93.81552       	94.88454       	92.936874      	94.349655      	95.57795       	92.82207       	94.811935      	91.683525      	93.95367       	95.38255       	92.384605      	95.33995       	92.05415       	93.387215      	94.5247        	92.67281       	93.46583       	91.88383       	93.623726      	93.77885       	92.90121       	92.85655       	92.3286        	91.74566       	91.218124      	92.7487        	90.46244       	92.01012       	94.46272       	90.60673       	93.00753       	92.848145      	91.907555      	92.83573       	91.81722       	92.218376      	92.55505       	93.1822        	93.44425       	93.07518       	94.33936       	92.63835       	93.49951       	92.15097       	93.067505      	92.76189       	92.49727       	
92.69722       	92.84669       	93.24586       	93.01669       	93.41321       	94.388985      	94.55104       	94.052574      	94.83174       	94.923325      	95.39722       	93.66303       	94.70717       	95.6507        	94.041916      	95.75739       	95.41524       	94.79          	93.98394       	94.82507       	96.61584       	92.96518       	95.459755      	96.712685      	96.54516       	93.30632       	95.18779       	97.27734       	96.91165       	95.202644      	95.13518       	95.97314       	97.443         	92.64082       	94.150406      	95.9264        	96.18461       	94.128426      	94.72767       	95.67827       	96.786934      	94.83589       	94.61921       	96.5287        	97.909584      	95.16702       	96.241875      	96.583145      	95.26005       	95.299446      	96.63152       	96.49216       	94.905876      	95.56508       	95.260284      	94.93277       	95.30816       	94.992714      	94.43403       	95.65848       	93.84685       	94.78381       	95.06327       	94.040115      	94.37389       	94.36852       	93.567375      	94.397514      	92.68741       	93.416         	93.91969       	92.64957       	92.91569       	93.96971       	91.79907       	93.687416      	94.69127       	91.60397       	92.73095       	93.089066      	92.889725      	92.53083       	93.4709        	94.43575       	91.844185      	93.49089       	92.86622       	94.108635      	93.711044      	93.109825      	93.40069       	92.79605       	93.570435      	93.15606       	94.28409       	95.11541       	93.73361       	95.43448       	93.18925       	94.33415       	
92.75904       	91.58501       	91.9325        	92.31164       	92.530914      	92.5564        	92.518234      	93.846306      	94.872086      	94.182465      	94.37259       	94.274124      	93.827644      	94.72513       	95.360916      	95.074585      	93.913956      	94.389786      	95.03755       	93.34726       	94.18431       	94.87996       	96.24985       	92.43502       	94.70776       	97.43617       	96.09168       	94.19865       	94.20387       	95.92672       	97.18246       	93.2037        	93.706474      	94.6201        	96.40975       	97.41064       	94.20194       	95.66429       	95.08371       	96.644394      	94.29235       	95.719765      	96.472275      	96.77318       	94.20186       	94.70265       	97.08899       	93.8234        	94.91827       	96.40581       	93.948845      	94.270874      	94.71347       	95.57667       	92.686775      	94.40056       	95.00764       	92.168976      	95.28505       	91.81465       	94.03622       	95.21066       	92.27387       	94.23751       	94.613335      	94.28552       	94.85628       	93.8456        	93.14432       	92.8612        	93.0455        	92.306274      	93.04329       	93.818085      	91.54623       	94.215096      	93.83          	92.79313       	94.310684      	92.80974       	92.9554        	93.71394       	94.13466       	95.676285      	93.01897       	94.6578        	94.563065      	93.90686       	93.95312       	93.01378       	94.036026      	92.551445      	93.94572       	94.99307       	93.32159       	95.56603       	93.1694        	94.60509       	95.64875       	94.34398       	
93.38945       	93.938354      	92.01604       	92.85165       	93.52733       	92.925674      	93.50579       	93.30257       	93.72731       	93.48539       	94.783936      	94.29222       	94.12659       	94.69725       	93.9279        	95.07248       	94.69874       	92.72594       	93.88406       	95.500626      	95.07591       	94.15404       	94.37727       	95.44193       	96.39472       	92.23926       	95.0037        	96.022446      	96.14688       	93.26863       	94.912926      	96.74716       	96.82557       	93.298935      	94.09827       	95.82284       	97.516304      	97.79757       	94.14493       	95.72005       	96.67573       	96.7119        	95.34127       	95.70145       	96.66977       	97.33008       	94.52006       	96.2712        	97.88603       	94.87096       	96.21142       	96.468636      	94.637665      	94.82792       	95.60074       	93.531975      	94.33402       	95.77493       	93.228546      	94.7266        	96.13021       	93.27691       	94.20174       	95.572495      	93.05922       	94.04363       	95.61339       	92.56009       	94.57115       	94.642975      	93.13435       	94.22238       	95.01055       	94.62501       	93.352104      	94.015205      	94.61684       	92.509636      	93.79806       	93.76934       	93.620476      	93.45402       	92.64497       	94.69286       	95.52047       	93.745155      	94.90055       	94.4273        	94.22043       	94.25692       	95.545975      	95.83168       	95.08398       	95.352425      	94.21704       	95.191         	93.972885      	94.46984       	94.02703       	94.436516      	
92.34443       	91.49688       	92.046585      	92.86522       	93.173965      	92.43619       	94.068756      	93.306915      	93.3525        	94.558014      	94.526054      	94.88878       	94.705864      	94.010796      	94.61877       	94.37545       	94.2596        	94.102615      	92.34553       	92.653336      	94.948135      	95.394646      	93.15578       	94.07682       	95.15429       	96.07783       	92.5703        	94.81142       	95.319916      	95.80769       	92.52821       	93.29947       	95.44759       	96.21373       	92.93677       	94.341644      	94.36451       	96.52253       	92.73225       	94.21236       	95.06588       	96.02869       	96.88799       	93.53955       	95.58735       	96.03792       	94.07032       	94.55778       	94.48853       	95.58887       	93.19925       	94.363396      	94.76721       	93.30148       	94.38619       	94.519615      	93.566864      	93.32712       	93.38419       	92.929214      	92.940636      	93.55397       	91.61783       	92.46607       	93.32015       	92.70999       	92.7929        	93.07182       	94.10376       	91.90648       	93.37792       	95.03294       	91.49687       	93.062836      	93.8374        	93.3278        	92.31904       	93.139         	93.615814      	93.37613       	92.748215      	93.042435      	93.367134      	94.80289       	91.58892       	93.99183       	95.212166      	93.79381       	92.88025       	93.531494      	94.91718       	94.30927       	94.77972       	94.41472       	93.72627       	94.56909       	93.547104      	94.354416      	93.46122       	94.12969       	
92.80848       	92.67148       	92.68846       	93.16732       	93.15091       	92.731636      	94.1151        	93.54765       	94.04674       	93.75038       	94.2554        	93.76762       	94.22608       	93.83789       	94.16264       	93.52967       	93.88132       	94.45128       	94.13958       	94.42825       	95.05164       	92.87891       	94.759674      	95.83988       	91.7557        	93.632576      	94.92622       	95.38932       	96.49802       	92.256195      	94.138565      	95.85852       	96.178314      	92.74117       	94.26347       	95.85279       	96.11778       	92.645706      	93.268394      	94.39164       	96.90397       	93.666         	95.78692       	96.73699       	96.415245      	94.482895      	94.54065       	95.708664      	96.43403       	94.183266      	95.079704      	95.62964       	94.04664       	94.039986      	95.880936      	93.015396      	94.62866       	95.85784       	92.9946        	94.32271       	94.97742       	92.517006      	94.0299        	94.73998       	91.66041       	92.78369       	94.4627        	94.40225       	91.97615       	93.49384       	94.109726      	94.16524       	91.80476       	92.308235      	93.479904      	93.760284      	91.54326       	92.4626        	93.68319       	94.78236       	91.59798       	94.217545      	93.808876      	93.60289       	92.59921       	92.639206      	94.16729       	95.10936       	92.66757       	93.96118       	94.1967        	94.44701       	92.7837        	94.11879       	94.88864       	94.08524       	94.013916      	93.79562       	94.22534       	93.791145      	
91.850555      	93.23994       	93.72298       	92.95402       	93.31669       	94.26713       	92.69477       	94.01615       	94.2288        	94.79932       	94.536674      	95.0195        	94.29042       	94.66026       	94.96552       	96.010796      	94.35655       	95.62115       	93.271225      	95.02171       	95.771904      	92.25338       	94.32671       	95.58239       	95.93471       	92.64733       	94.08786       	94.714264      	96.459465      	91.2484        	92.68446       	94.85228       	95.82365       	96.04151       	93.41127       	93.5109        	95.30192       	97.586914      	92.612564      	95.26115       	96.090706      	96.1742        	93.1301        	93.85389       	95.02687       	95.29537       	95.13285       	92.99909       	93.505135      	95.68796       	91.528984      	93.18745       	94.29229       	94.07384       	92.87948       	93.859         	93.812164      	91.98071       	92.62662       	94.02938       	94.696815      	92.995125      	93.81744       	93.11577       	92.13606       	91.146286      	93.20089       	95.26461       	94.469536      	92.39061       	92.53832       	93.357315      	94.33171       	91.33565       	92.407394      	92.76878       	94.15002       	90.952545      	92.72831       	95.245316      	93.84961       	93.0837        	92.69085       	93.30357       	95.1445        	94.908455      	92.59905       	93.34607       	94.325035      	95.3401        	92.412544      	94.923775      	94.558464      	93.97396       	93.00025       	94.58461       	95.4818        	95.23317       	94.23234       	95.14502       	
91.316154      	93.52074       	93.858345      	93.39845       	93.04709       	94.16554       	93.953156      	94.04497       	94.249954      	94.78031       	94.956345      	94.870674      	95.63542       	94.099045      	95.84752       	94.31214       	94.40088       	94.5533        	94.28316       	92.4305        	92.84865       	95.65735       	96.76692       	91.75933       	94.298584      	94.66317       	95.79717       	83.91733       	85.802444      	89.357994      	91.36674       	93.52477       	95.19807       	96.968094      	89.19186       	91.15494       	93.868866      	94.84785       	96.79801       	98.947586      	91.878654      	94.31034       	93.6795        	96.291824      	99.31405       	93.22338       	95.61943       	94.71618       	95.24803       	98.139         	92.39525       	94.82295       	95.430435      	95.787636      	96.88154       	94.23538       	96.175705      	95.47057       	94.233536      	92.80254       	93.43973       	96.04735       	96.801025      	92.86391       	94.2131        	93.83336       	94.86467       	90.99992       	92.564896      	93.82183       	95.19299       	95.221725      	92.768265      	93.98316       	93.472565      	95.137924      	91.10572       	92.983         	94.87363       	94.295586      	94.97369       	92.32307       	93.2095        	93.918365      	95.35241       	92.51708       	93.05375       	94.720245      	95.39143       	94.31844       	93.338585      	94.63437       	95.061295      	95.760056      	93.54745       	95.35896       	95.93309       	95.2376        	94.42724       	95.21015       	
91.75139       	94.765305      	94.91554       	92.96097       	93.27243       	94.95468       	93.880424      	94.96094       	94.60369       	94.59203       	94.52951       	95.41298       	95.52733       	95.15251       	95.807526      	94.05944       	96.150665      	95.50089       	94.071014      	93.789536      	94.12899       	97.21768       	90.781586      	94.429405      	96.04939       	94.780556      	84.73376       	88.04316       	90.9959        	91.570465      	95.00801       	96.88618       	96.45804       	90.0569        	91.22033       	94.64847       	97.059525      	97.08045       	98.293976      	91.52177       	93.074776      	95.6812        	96.264656      	96.995         	92.56665       	94.20234       	95.698235      	96.71171       	97.797         	93.66674       	94.827194      	95.47293       	95.96289       	93.289055      	93.56812       	96.32338       	96.889275      	92.63415       	94.1366        	95.0621        	95.13266       	91.58605       	92.12626       	93.27033       	95.43136       	95.411026      	92.021065      	92.21062       	93.48068       	96.10346       	96.102776      	91.89453       	93.23616       	94.057         	94.63441       	94.8272        	91.96703       	93.19437       	95.32779       	95.821915      	93.63154       	93.544426      	93.093666      	96.14936       	97.54904       	93.242195      	94.4702        	95.937744      	96.08814       	96.35119       	95.2165        	95.46541       	95.71407       	96.99445       	97.99157       	94.91858       	97.26635       	96.38004       	95.58778       	95.623085      	
92.389885      	93.23115       	93.9027        	94.3203        	93.60917       	93.12212       	94.53136       	94.74466       	94.97845       	94.918335      	95.47448       	94.42827       	95.801605      	96.2383        	94.80754       	96.20065       	92.45236       	94.31568       	95.633896      	96.0981        	91.188614      	92.99825       	96.69002       	96.50692       	92.42038       	89.689384      	91.527725      	97.64433       	96.41223       	95.598495      	90.60341       	91.6775        	96.774506      	97.45747       	96.57544       	91.98225       	93.4134        	96.931625      	98.19676       	97.92364       	92.71673       	93.23907       	95.15079       	96.83249       	97.56733       	97.78739       	95.63378       	96.3372        	96.50464       	97.75697       	92.819916      	95.103165      	97.14259       	96.11934       	94.83473       	94.32917       	94.980064      	97.37802       	92.145645      	95.10131       	94.36178       	95.80809       	90.50829       	94.09199       	94.970474      	93.964806      	95.52265       	90.52845       	94.08349       	95.986984      	94.24735       	95.11215       	91.04988       	93.746124      	96.38317       	95.57654       	92.92516       	93.35909       	94.108574      	94.95772       	96.8792        	92.743904      	93.85144       	95.211334      	95.160416      	96.250626      	92.496506      	95.021034      	96.78136       	95.583305      	95.932755      	93.909004      	93.96907       	95.82726       	96.25511       	94.28283       	96.20211       	94.91419       	95.545815      	94.50518       	
91.93815       	92.25475       	93.80029       	95.22425       	93.8949        	93.29668       	95.25269       	93.900406      	94.218925      	95.31788       	94.160736      	95.518295      	95.53023       	94.65506       	95.05201       	94.30849       	94.225624      	95.37359       	91.0859        	94.17042       	96.87254       	96.07337       	92.64165       	91.86063       	94.72426       	97.12507       	90.718315      	93.56535       	94.01607       	94.66639       	90.2226        	91.33419       	95.48076       	96.41292       	92.10567       	93.433235      	93.01771       	96.71512       	99.62565       	92.5642        	94.36445       	93.08546       	95.52963       	97.69227       	92.38919       	95.23909       	95.34786       	95.79211       	93.40324       	95.10538       	96.041756      	96.10804       	92.583755      	92.79338       	96.35684       	97.51844       	93.42285       	94.90019       	93.56705       	95.151115      	89.36058       	93.223404      	95.71524       	94.05679       	91.89868       	90.82118       	93.99178       	94.85857       	94.28535       	91.89365       	90.62178       	94.41805       	96.5822        	94.33971       	92.13691       	91.148         	93.33534       	95.764435      	95.22799       	94.65486       	91.73275       	93.040886      	95.19968       	94.94707       	95.40503       	92.7695        	94.90144       	96.938484      	95.10129       	94.66812       	93.34534       	94.59676       	96.76964       	96.37298       	94.69261       	95.13455       	95.223885      	95.51095       	94.48347       	94.75734       	
92.069984      	91.31718       	92.68212       	94.376816      	93.589516      	92.89507       	95.42569       	92.90447       	93.546745      	93.54898       	94.03296       	94.71715       	93.010056      	94.194626      	95.267914      	92.89506       	94.9763        	90.51916       	92.65068       	94.742874      	95.035995      	90.69626       	91.347946      	93.64579       	95.7704        	88.17554       	92.363         	93.87139       	93.15287       	90.44896       	90.939644      	92.634445      	96.08956       	96.835526      	93.08715       	93.35545       	93.45206       	97.24334       	98.078575      	92.59698       	94.13696       	93.26352       	95.4238        	97.68941       	93.2727        	95.53697       	95.13945       	93.882256      	93.139366      	93.08288       	94.92604       	91.50434       	92.58896       	94.314285      	94.9227        	91.468155      	93.95398       	94.229195      	93.75651       	90.67736       	90.35737       	92.64008       	94.08902       	93.8779        	90.82713       	90.74163       	92.857         	95.057625      	96.00267       	91.70533       	93.33316       	92.83548       	94.45647       	89.67004       	90.58826       	94.27066       	93.76392       	93.9816        	96.21496       	90.69445       	93.1518        	94.37331       	93.827644      	95.45934       	92.39879       	94.01985       	95.62535       	95.805244      	95.34097       	93.736374      	94.30761       	94.48455       	95.663826      	93.312164      	94.424736      	96.80807       	97.12922       	95.02157       	95.21793       	94.75537       	
92.72709       	92.6989        	92.92199       	93.57003       	94.11174       	92.80281       	94.72051       	94.40553       	93.49684       	95.59798       	94.01346       	94.77437       	94.34687       	94.35926       	94.61584       	94.76928       	95.4611        	93.24919       	93.84387       	94.59532       	95.80579       	88.97908       	92.62968       	94.72104       	94.858604      	88.69005       	89.71135       	92.56619       	95.043         	89.69592       	92.27296       	93.05159       	94.295135      	97.139786      	90.85844       	93.760086      	95.8445        	96.210175      	97.38176       	91.12706       	92.03727       	95.222855      	96.06792       	96.42827       	93.04005       	94.09683       	94.637375      	96.128586      	93.733246      	94.80958       	96.13201       	97.51497       	92.26578       	95.25785       	94.4913        	95.13576       	91.85656       	92.980705      	94.47949       	95.59212       	95.38447       	90.84822       	93.36499       	94.20236       	94.75023       	90.52235       	92.22719       	95.471886      	95.98601       	92.40227       	91.83741       	95.130196      	97.25462       	95.63876       	92.72623       	92.03431       	95.25285       	97.86911       	95.134476      	93.81999       	91.277954      	94.82848       	98.273125      	95.38917       	94.91114       	92.73107       	94.63606       	97.37301       	96.87321       	95.51613       	94.0086        	94.40823       	96.34213       	96.43776       	95.09363       	94.70529       	96.76012       	97.70865       	96.71925       	96.865326      	
91.83634       	93.204216      	95.26313       	94.96293       	92.00516       	95.41598       	94.56849       	93.09588       	94.708115      	92.96097       	96.418625      	93.46544       	92.97643       	95.72648       	94.48644       	96.42774       	95.47851       	94.26234       	94.68532       	95.435104      	96.87951       	90.635284      	92.167656      	94.17404       	96.15287       	89.68321       	90.47453       	91.64604       	93.6606        	95.72411       	89.08574       	93.44056       	93.99838       	94.64267       	97.578125      	90.02527       	94.77452       	94.63893       	94.98947       	99.653534      	90.960495      	95.48636       	95.06652       	94.55106       	97.00206       	92.61775       	94.265884      	96.2245        	96.38685       	92.82779       	94.34836       	94.83941       	95.968094      	92.41175       	93.88334       	95.5169        	95.99508       	92.4012        	93.36702       	95.27547       	95.441635      	91.42656       	90.99435       	92.69308       	95.52062       	89.321655      	92.95275       	93.656975      	93.485115      	94.88714       	91.718765      	93.69003       	96.110016      	96.03256       	92.869995      	93.70658       	94.61373       	95.0712        	96.18541       	91.9796        	92.91635       	94.56482       	95.59518       	96.05669       	95.68835       	93.58618       	94.41759       	97.29285       	96.44762       	94.807816      	94.370224      	93.50154       	95.86977       	96.78003       	94.043205      	95.42728       	95.45686       	95.16963       	96.02715       	93.736725      	
93.316         	93.55978       	94.42679       	94.63973       	93.975105      	95.19807       	95.29459       	94.52182       	95.835884      	93.0358        	95.24639       	94.95539       	94.21587       	95.68657       	94.687874      	95.12233       	93.48756       	93.993195      	95.74052       	90.93145       	92.14429       	95.0531        	95.06852       	89.70532       	89.950874      	91.054565      	94.77325       	96.276405      	90.57213       	92.41441       	92.47023       	95.54142       	89.60714       	92.11561       	95.10416       	95.782875      	97.27691       	91.39912       	92.5418        	94.206474      	96.05656       	96.56074       	96.29741       	92.88562       	93.116486      	96.74064       	97.494644      	93.95598       	95.20134       	94.50671       	96.12622       	91.3518        	93.09481       	95.69853       	95.798386      	95.200356      	93.54572       	93.32691       	95.31278       	96.70775       	91.83004       	94.433304      	94.12761       	91.65397       	91.95256       	92.82828       	95.87044       	97.75526       	91.68449       	93.88033       	94.79853       	94.65934       	95.08222       	90.8955        	93.64073       	95.55087       	94.76079       	95.17304       	92.23286       	93.34098       	95.558174      	97.32246       	95.74484       	94.53657       	94.94121       	95.90629       	97.06857       	97.43971       	93.74864       	95.370346      	95.56485       	95.87289       	95.766365      	93.14238       	94.5712        	97.248245      	96.51562       	96.34765       	93.76146       	94.025185      	
91.459366      	92.487144      	94.353485      	94.96037       	92.92657       	94.25948       	94.76078       	93.501114      	94.62585       	93.47476       	94.155         	94.45747       	94.59424       	94.6292        	95.1337        	94.20755       	94.11422       	93.4695        	95.12226       	89.35896       	92.37331       	95.10454       	93.51676       	89.44435       	89.168015      	91.16984       	93.006996      	94.33945       	88.31034       	90.9893        	93.71469       	94.562744      	89.47395       	90.159004      	92.32071       	95.86475       	95.75408       	95.489395      	91.53698       	92.90457       	95.34383       	96.61581       	97.43904       	91.06926       	94.38726       	95.82545       	94.90597       	93.94047       	93.06857       	95.12024       	97.33          	97.204025      	94.1453        	94.86092       	94.06661       	95.128334      	91.81557       	93.64108       	95.400955      	95.66936       	91.02385       	92.91533       	92.42794       	90.29788       	89.82211       	91.85279       	94.446465      	95.3144        	90.84709       	92.31226       	92.84771       	94.47314       	95.134415      	91.376236      	91.90099       	93.919716      	95.23983       	95.167114      	92.74505       	92.60811       	94.92974       	97.65495       	94.99077       	95.260506      	91.82796       	96.37101       	97.83711       	94.97073       	95.529366      	92.07451       	94.51214       	96.72262       	95.58283       	95.30201       	93.710884      	95.128586      	95.70354       	96.65869       	96.688225      	94.818756      	
93.31117       	94.84221       	94.01196       	92.33192       	94.39645       	95.348526      	92.679245      	94.74928       	95.60269       	93.91082       	96.22126       	93.276085      	95.517         	93.7196        	95.78392       	95.450005      	94.62477       	95.871025      	93.37542       	92.27504       	91.55132       	94.52715       	96.41795       	88.486244      	90.33622       	91.95751       	93.4668        	94.98644       	89.327995      	91.12899       	93.93288       	94.89263       	95.45157       	90.466415      	91.53606       	94.28444       	96.73756       	96.35324       	91.25114       	93.021126      	94.31705       	95.37099       	96.643936      	92.51569       	93.858765      	95.62133       	96.055824      	95.73548       	92.630325      	93.56969       	95.94291       	97.153984      	93.53268       	95.6755        	94.37302       	95.10468       	92.4095        	91.98338       	94.97904       	96.24927       	90.54528       	93.29853       	92.699814      	93.15165       	90.36186       	92.04859       	94.22356       	94.59124       	89.0598        	91.68598       	93.39839       	93.70094       	94.86168       	89.634315      	92.7268        	95.66031       	94.80644       	95.90581       	91.805176      	93.59045       	96.47868       	96.25864       	96.10684       	96.769516      	93.91928       	94.69869       	96.1578        	96.17064       	95.051476      	93.70817       	93.47014       	95.07258       	97.48766       	95.20987       	94.65545       	93.59448       	94.57809       	97.27438       	95.21581       	94.76175       	
92.21876       	92.982216      	94.23119       	94.96448       	93.482376      	94.5381        	95.52438       	94.386215      	95.97411       	95.81588       	95.59962       	96.33556       	94.63547       	96.03715       	94.03741       	95.09615       	95.582436      	93.528946      	93.863686      	94.99448       	96.02433       	90.307755      	92.73744       	94.301674      	95.46268       	89.6624        	90.45943       	92.794556      	95.71867       	96.73432       	90.76568       	92.752426      	94.47137       	96.66029       	97.56458       	92.76187       	94.677414      	96.92536       	97.37717       	96.98927       	93.10845       	93.03207       	95.05298       	97.83149       	97.31226       	94.66886       	94.46432       	94.65248       	97.05668       	93.48666       	95.31505       	95.54898       	96.08858       	92.97925       	94.956085      	95.08805       	94.75723       	91.695274      	92.44335       	94.790726      	88.975464      	91.88756       	93.953964      	94.219635      	94.67647       	89.90927       	91.72011       	94.49959       	95.58949       	90.702095      	92.39688       	92.977005      	94.326904      	96.44604       	91.16832       	93.31445       	94.87617       	97.00131       	96.981735      	97.076096      	95.252396      	95.99125       	97.642136      	97.3272        	96.42069       	94.54637       	94.71086       	96.30692       	97.52259       	96.84887       	94.9401        	95.54609       	95.31557       	96.74049       	96.68478       	94.16784       	94.34793       	96.743286      	96.859055      	95.97485       	
90.954216      	91.718544      	92.798744      	91.61044       	92.03097       	93.072235      	93.66591       	93.627945      	94.43298       	94.7249        	95.044846      	93.84274       	93.88836       	93.1555        	93.96544       	94.00602       	94.01399       	93.32973       	93.20112       	95.337906      	90.68086       	92.6761        	93.548134      	94.38486       	88.46996       	90.38702       	93.1201        	93.96353       	94.74486       	88.556435      	91.2106        	94.288445      	95.34459       	91.67847       	92.57247       	93.26751       	96.90568       	90.54927       	93.462074      	95.616135      	94.925385      	95.64409       	91.63138       	92.76861       	95.52986       	96.50798       	95.45715       	93.58768       	93.824745      	95.04956       	93.26374       	93.41558       	94.841866      	95.178185      	92.28113       	93.68571       	94.344124      	94.80755       	90.95633       	93.226875      	92.95634       	93.64943       	89.14423       	91.218925      	93.45387       	94.69609       	90.178825      	90.79715       	92.5102        	94.27219       	94.9882        	90.30094       	92.31342       	94.17331       	94.56172       	94.9668        	92.32441       	92.74016       	94.57187       	96.7           	95.52758       	95.5882        	92.933624      	94.24171       	96.18869       	97.08021       	95.81805       	94.23593       	94.777435      	95.47226       	95.85567       	96.54843       	92.804695      	95.127335      	95.615074      	95.52241       	96.64849       	93.21302       	95.19207       	95.11601       	
92.13417       	93.15023       	93.49911       	93.19121       	93.27166       	93.871284      	94.012436      	94.002884      	94.45889       	95.46858       	94.36087       	94.931564      	95.0215        	93.92559       	94.584335      	95.25526       	94.19481       	95.01051       	93.13916       	93.935356      	95.63463       	88.1242        	90.93164       	93.19365       	93.16633       	94.61357       	89.426605      	91.34709       	93.643234      	94.90286       	89.8859        	91.37169       	94.690315      	95.62181       	93.17768       	94.93858       	94.90943       	95.58195       	92.75097       	93.7089        	95.772446      	96.74666       	92.61699       	93.933174      	94.52988       	94.990616      	95.72425       	93.81898       	94.496956      	96.20679       	93.399155      	94.667206      	94.92972       	95.1759        	92.98079       	93.89441       	95.53261       	96.040405      	93.74813       	95.11333       	93.98467       	90.243         	91.019615      	92.7951        	94.39427       	95.76899       	90.09697       	92.2872        	93.71896       	94.2945        	91.24625       	92.7873        	93.79513       	95.390396      	91.09169       	92.15441       	94.49596       	95.71612       	96.38205       	96.81074       	93.57746       	94.17301       	96.11471       	97.082634      	95.51846       	94.170166      	93.65878       	95.74866       	96.12731       	95.74926       	95.65191       	93.41303       	94.614426      	95.030396      	95.528114      	96.44759       	93.04046       	95.22722       	95.00087       	94.78698       	
92.8221        	93.26137       	92.6584        	93.30208       	94.4124        	95.04013       	94.45075       	94.9792        	95.97803       	95.74011       	95.89595       	94.96696       	93.95212       	94.924675      	94.76721       	94.7399        	96.12744       	93.98561       	95.162735      	96.73593       	92.18556       	94.66855       	95.186905      	88.59407       	90.247314      	92.132126      	93.77973       	89.0586        	91.2004        	93.01884       	95.07114       	90.74081       	91.337616      	94.07357       	96.380936      	96.126755      	96.81774       	91.50624       	92.71019       	95.31618       	96.25026       	96.24776       	93.96296       	95.32997       	96.54979       	95.93588       	94.2275        	94.27733       	96.23555       	97.33744       	94.30392       	95.56719       	97.31498       	93.57934       	95.89418       	96.09205       	93.10071       	94.37104       	94.215836      	94.59828       	91.27799       	92.749146      	94.42622       	95.30527       	90.45584       	91.85112       	93.58618       	95.30087       	94.998184      	91.99924       	93.40104       	94.80363       	95.527725      	93.51582       	94.40695       	96.67369       	96.6014        	93.49178       	94.18665       	96.87488       	97.80417       	95.99475       	94.99486       	93.483284      	96.0052        	98.04571       	96.213905      	95.53342       	94.04096       	95.79489       	96.55704       	96.96281       	97.02782       	94.52519       	95.124626      	95.51506       	96.85921       	97.5247        	94.12082       	96.13949       	
92.79792       	93.163         	92.34053       	93.50505       	94.2236        	94.02214       	94.31569       	94.92266       	94.69931       	94.83824       	94.72271       	94.86104       	94.14623       	95.589584      	95.28211       	94.943474      	96.39319       	95.56953       	94.96568       	94.73149       	94.34364       	90.04577       	91.526405      	93.68359       	93.904976      	90.26268       	89.966095      	91.88825       	95.23072       	89.293335      	92.91167       	95.06006       	90.83763       	92.1779        	93.85477       	94.81768       	91.67253       	94.643684      	95.39007       	94.72208       	92.96627       	93.33993       	94.389175      	95.50652       	92.00793       	93.15472       	94.427734      	95.57582       	94.03914       	96.05211       	95.67583       	94.625206      	95.18609       	94.230034      	93.330284      	93.19418       	93.54723       	92.695305      	92.09042       	93.908775      	94.32856       	90.416336      	91.98813       	92.66733       	93.40059       	90.24031       	91.16942       	92.78783       	93.700554      	90.10383       	91.74398       	93.470535      	94.71825       	92.70445       	94.86415       	94.408066      	94.61177       	92.15739       	93.58253       	95.37898       	95.97557       	95.0102        	92.83496       	94.56796       	94.56564       	95.03926       	95.88748       	91.53559       	94.35616       	94.78646       	93.91827       	95.94567       	91.491455      	93.94336       	94.63193       	95.171425      	94.774345      	92.18171       	93.4135        	93.65992       	
92.03279       	92.52109       	91.97351       	92.37048       	93.71629       	94.36828       	94.39513       	96.054146      	94.85373       	95.01793       	95.8912        	93.96472       	95.59785       	94.2047        	94.87142       	95.95213       	95.06353       	94.919235      	95.14519       	93.55175       	94.26522       	91.91979       	91.16969       	93.044266      	94.54459       	90.2271        	92.31528       	94.06506       	93.10011       	92.09098       	93.06641       	94.081055      	90.911285      	91.95191       	93.483185      	94.02833       	91.557014      	91.82657       	94.00986       	95.175125      	91.95511       	93.4818        	94.51097       	94.57421       	93.531364      	94.02867       	94.693634      	94.818726      	94.036064      	93.65129       	93.64354       	94.913124      	93.63343       	93.63886       	92.881966      	92.876205      	92.41199       	92.22728       	93.532974      	88.80466       	90.96296       	93.07018       	93.38248       	90.029755      	90.80858       	93.46403       	93.9987        	93.71158       	91.22826       	91.47029       	93.24674       	94.19244       	92.3873        	94.53568       	94.68926       	91.59          	92.64057       	94.071014      	96.27295       	95.33847       	94.72737       	92.56752       	93.684586      	96.132454      	95.66727       	94.58089       	92.61112       	93.221756      	94.84374       	95.4486        	95.255936      	92.9775        	94.39159       	95.03833       	95.42097       	94.99194       	92.835495      	93.214935      	95.58586       	96.548256      	
