# www.neaspec.com
# Scan:	 	Whitelight Imaging
# Project:	 	20251007_PS
# Description:	 	
# Date:	 	10/07/2025 11:32:10
# Scanner Center Position (X, Y):	[µm]	49.99	50.01	 
# Rotation:	[°]	0	 	 
# Scan Area (X, Y, Z):	[µm]	5.000	5.000	0.000
# Pixel Area (X, Y, Z):	[px]	100	100	1
# Interferometer Center/Distance:	[µm]	0.000	0.000	 
# Averaging:	 	1	 	 
# Integration time:	[ms]	5	 	 
# Wavenumber Scaling:	 	1.000000	 	 
# Laser Source:	 	4.5-15 µm nano-FTIR laser
# Detector:	 	R
# Target Wavelength:	[µm]	7.502	 	 
# Demodulation Mode:	 	Fourier
# Tip Frequency:	[Hz]	241,340.500	 	 
# Tip Amplitude:	[mV]	45.700	 	 
# Tapping Amplitude:	[nm]	70.684	 	 
# Modulation Frequency:	[Hz]	0.000	 	 
# Modulation Amplitude:	[mV]	0.000	 	 
# Modulation Offset:	[mV]	0.000	 	 
# Setpoint:	[%]	79.75	 	 
# Regulator (P, I, D):	 	4.206850	8.625812	1.000000
# Tip Potential:	[mV]	0.000	 	 
# M1A Scaling:	[nm/V]	0.426	 	 
# M1A Cantilever Factor:	 	1,000	 	 
# Q-Factor:	 	487.4	 	 
# Version:	 	2.1.11536.0
94.548546      	94.97432       	94.612915      	93.332275      	95.13551       	93.894936      	95.14456       	95.365715      	94.77185       	95.18532       	94.66024       	94.73006       	94.65935       	95.83963       	96.537315      	93.98743       	94.39201       	95.6652        	95.55519       	96.534065      	94.13018       	92.725624      	96.24318       	94.82372       	96.03902       	94.5206        	91.92545       	92.03605       	95.85612       	95.770515      	93.97897       	93.09814       	92.94807       	89.84328       	96.53753       	92.43785       	91.55386       	93.45735       	89.43241       	96.19317       	92.102936      	91.1615        	93.3638        	90.61617       	96.14225       	93.68774       	90.58233       	92.53657       	91.47133       	93.38475       	93.572586      	93.04798       	93.75042       	91.42619       	94.24951       	93.03863       	93.52967       	93.83177       	93.05873       	94.649956      	93.75467       	91.18117       	93.44772       	91.41675       	90.5429        	94.30521       	91.41521       	94.88832       	92.931         	95.12074       	95.55359       	93.42426       	95.51202       	93.168495      	93.754265      	95.02251       	91.85405       	90.478935      	93.8783        	92.61393       	93.06751       	93.887535      	93.407875      	93.673004      	94.27544       	94.245155      	92.929245      	92.42779       	93.1387        	93.346054      	92.76524       	94.753525      	95.54414       	92.66117       	96.2907        	93.699905      	92.167076      	93.31023       	94.77121       	96.06865       	
95.04184       	94.71061       	95.03797       	94.284904      	94.578545      	94.889206      	95.29567       	95.71756       	94.72928       	95.86189       	94.726875      	93.594376      	95.478264      	95.240326      	96.446236      	95.9322        	93.54305       	96.09573       	95.377205      	94.28942       	94.733154      	94.2195        	95.527374      	95.63138       	96.613655      	93.29843       	92.5098        	93.60088       	94.915245      	96.61929       	93.168106      	91.37313       	93.5933        	91.566864      	95.921684      	94.558395      	91.87332       	92.535934      	91.56188       	95.74175       	95.09575       	93.398285      	93.04054       	91.61459       	95.15608       	93.13128       	93.41642       	93.65327       	94.84698       	95.57094       	92.95858       	90.72453       	94.62447       	91.00612       	94.796005      	92.0242        	94.82784       	93.714935      	91.96167       	94.33177       	93.98797       	92.56759       	94.145256      	92.61942       	92.719444      	94.27909       	92.35196       	93.78622       	94.39071       	93.48609       	94.00866       	94.501274      	93.46567       	94.09827       	93.904         	93.144295      	94.80563       	95.005615      	96.04857       	94.71452       	92.61743       	95.355804      	93.369835      	93.82454       	94.6255        	94.37033       	93.47119       	92.91036       	93.98463       	93.495514      	92.76012       	93.67524       	93.0572        	93.78018       	94.29602       	95.419136      	95.13213       	93.44286       	93.24968       	92.79743       	
93.617676      	93.97658       	93.83153       	93.61606       	94.83223       	94.35063       	93.706085      	94.39649       	95.4382        	94.724655      	95.5157        	95.732185      	95.396835      	96.14704       	95.48031       	94.123116      	96.095665      	94.71209       	95.71446       	95.96862       	93.60487       	96.35402       	95.50192       	94.685776      	94.14118       	93.24145       	95.38813       	94.43891       	94.43056       	94.22615       	92.16642       	90.47305       	93.15877       	93.66673       	94.630165      	91.70714       	90.084854      	90.393906      	93.91984       	93.77192       	92.561646      	91.451775      	94.534294      	94.52218       	93.771515      	92.08377       	90.446045      	93.34774       	91.47043       	92.15587       	91.921234      	92.46483       	93.39547       	92.37347       	93.375984      	92.21333       	93.227776      	93.717125      	93.14118       	94.02316       	93.78116       	93.982574      	92.92949       	92.8979        	93.843765      	93.03615       	93.432175      	93.54602       	93.98261       	95.224556      	92.79217       	95.736786      	94.677284      	92.45088       	94.09563       	93.789215      	93.325806      	94.37659       	93.34834       	95.10482       	93.84785       	94.924385      	95.83781       	94.01401       	91.65379       	94.85568       	93.29991       	92.47796       	94.282524      	93.657104      	92.786865      	94.500114      	93.78803       	92.78493       	95.21419       	93.144745      	94.21398       	95.06219       	95.58363       	94.80929       	
94.77614       	92.86125       	94.316986      	95.741684      	94.07266       	94.05521       	96.20511       	94.406815      	93.62254       	95.725266      	94.53771       	93.96831       	95.83248       	96.36628       	95.35723       	96.86535       	94.744125      	94.56076       	95.11989       	95.19756       	94.9429        	94.469986      	93.54274       	94.5561        	94.36016       	94.38103       	92.824326      	91.64674       	92.257355      	94.12829       	94.200005      	93.927         	91.3867        	91.37072       	94.0445        	93.65068       	93.206215      	92.19903       	91.62272       	89.68458       	94.55789       	91.941605      	92.12181       	92.47921       	93.34355       	93.74223       	92.905426      	90.24493       	93.668755      	92.764366      	92.0454        	93.6355        	92.75731       	91.49564       	93.262054      	92.38238       	91.82084       	93.1943        	93.062485      	93.49814       	93.84219       	92.720245      	91.62634       	93.99943       	92.30983       	91.6838        	93.30407       	93.56456       	94.35074       	92.70119       	92.862175      	94.617874      	92.504654      	93.97607       	94.24475       	92.97522       	95.2681        	93.43987       	95.58516       	95.25795       	92.91366       	92.695816      	94.21994       	93.38864       	93.02129       	93.73759       	93.19158       	91.99501       	92.34111       	94.51806       	91.75815       	94.406166      	92.84538       	94.58843       	93.70231       	92.63561       	93.49809       	94.60441       	95.03925       	94.45809       	
93.17833       	93.70759       	93.12697       	93.632126      	95.24511       	93.02804       	93.219696      	94.38586       	93.24273       	92.91344       	94.16307       	94.0706        	92.94744       	94.30799       	94.495346      	93.07453       	94.77193       	94.16484       	94.25563       	94.19695       	94.28812       	95.2028        	94.40385       	93.69046       	93.89226       	93.40933       	95.19899       	95.54134       	93.07072       	93.403755      	92.93004       	94.662544      	94.5388        	93.7462        	93.08165       	92.46211       	90.81678       	94.01139       	92.740875      	93.921005      	92.24074       	95.69793       	94.05163       	91.44157       	92.995         	93.12008       	93.3946        	94.24315       	91.548294      	94.624176      	93.30486       	92.14456       	92.91833       	93.01696       	91.91028       	91.65718       	92.67392       	91.99908       	92.6133        	92.33587       	92.39144       	93.11948       	92.09447       	93.136765      	92.11822       	92.43853       	92.72205       	93.25118       	92.837906      	92.60377       	93.40826       	92.270874      	91.86723       	93.90451       	92.30988       	94.06514       	92.33907       	92.86963       	94.132774      	93.05521       	92.469986      	92.612114      	92.98914       	92.66393       	93.3741        	92.36622       	93.823         	93.22834       	92.1727        	92.91316       	92.74041       	92.61385       	93.189255      	93.28593       	92.31877       	93.263054      	93.328705      	91.97932       	91.353         	90.89099       	
94.32694       	95.840645      	94.65587       	93.77764       	95.04191       	95.027596      	94.1658        	94.924965      	95.81642       	94.571625      	95.11242       	95.66501       	95.491776      	94.820625      	95.47075       	96.210464      	95.125824      	94.863655      	96.5581        	96.863235      	95.25354       	96.792274      	95.01396       	94.387856      	96.53535       	95.45109       	95.654         	95.71126       	93.38705       	92.821976      	95.281334      	94.724655      	94.20173       	93.471794      	91.240776      	95.044754      	93.75621       	92.18668       	91.735916      	93.28465       	93.392136      	93.60652       	92.57392       	94.47916       	93.787445      	92.654526      	91.70134       	91.19904       	92.53503       	92.697464      	92.83831       	93.62906       	94.53556       	93.34724       	90.83922       	94.65976       	91.678215      	91.260704      	93.72465       	91.04909       	93.28773       	91.81438       	93.486534      	94.88952       	91.336136      	96.221725      	92.78423       	95.62467       	94.137344      	94.13463       	95.86667       	93.8463        	94.62496       	94.987076      	95.108475      	95.32203       	94.820114      	95.56823       	95.471344      	94.91082       	95.64974       	94.53309       	95.74784       	95.19442       	93.14281       	96.16759       	94.282394      	92.3497        	94.44905       	93.310715      	93.510254      	94.07413       	94.80816       	93.87299       	94.72914       	95.60937       	94.47731       	93.44567       	93.82882       	94.59708       	
95.1388        	96.27404       	94.95067       	94.60015       	96.10372       	95.091484      	93.91797       	96.247955      	95.14865       	92.96126       	95.12179       	95.60738       	92.9684        	93.89168       	95.95585       	93.51219       	94.699165      	96.13716       	94.93143       	95.57068       	94.93395       	94.06778       	94.73336       	94.210846      	94.69999       	93.959595      	95.40716       	94.22458       	92.95119       	93.50661       	93.321526      	93.82403       	95.575874      	93.60741       	92.309074      	92.56977       	93.30232       	94.34096       	93.9713        	91.59276       	93.6508        	93.2303        	92.7491        	92.25353       	94.34595       	93.49538       	92.55895       	92.49737       	91.23846       	94.09692       	93.13527       	90.61125       	90.99032       	91.624626      	92.53161       	94.36646       	92.52144       	95.187874      	92.69414       	92.65714       	95.14377       	92.860275      	94.857574      	93.69951       	93.5887        	95.15638       	92.81674       	92.71961       	94.61625       	93.90639       	93.500336      	94.436775      	94.95112       	94.57007       	95.191765      	95.38386       	94.996346      	94.392075      	94.75061       	95.1301        	94.117905      	95.60841       	94.82034       	92.617584      	92.576546      	94.64546       	92.41481       	93.93499       	92.552444      	93.05141       	95.0576        	93.42036       	95.07654       	93.95113       	94.06278       	94.49604       	94.65316       	94.223236      	94.141754      	93.27453       	
94.0818        	93.19073       	94.28966       	94.18973       	92.93494       	93.85959       	94.785645      	93.14861       	92.4066        	94.601616      	93.56664       	92.37983       	94.82419       	94.95977       	93.13628       	94.51461       	95.029465      	93.50395       	94.81889       	94.452705      	93.548004      	94.15507       	94.04438       	94.37918       	94.530235      	95.13454       	93.75465       	93.5207        	94.76164       	94.57292       	94.993164      	93.96948       	91.190445      	93.22258       	91.826294      	93.5332        	94.02462       	91.04989       	94.51755       	92.502525      	92.43346       	92.55858       	93.52771       	93.45484       	92.64405       	91.38443       	92.962395      	93.212906      	93.010605      	90.97597       	91.11546       	92.39809       	91.89998       	94.19481       	92.70212       	94.785934      	93.333565      	90.51135       	95.1519        	92.01221       	91.75046       	92.92097       	91.70497       	93.518074      	92.42055       	94.30737       	93.18237       	92.43948       	93.30751       	93.15097       	92.97009       	93.187126      	93.47728       	93.30926       	92.8178        	93.48564       	94.26247       	93.08658       	93.73907       	94.362946      	94.59152       	93.94267       	94.408035      	93.41981       	94.279976      	94.63916       	93.126175      	95.60286       	95.518         	93.36613       	95.867676      	94.2821        	93.07594       	95.98195       	94.86901       	92.8171        	94.50876       	95.79476       	95.36946       	94.61783       	
93.348236      	94.81217       	94.25725       	91.89076       	93.952644      	94.35408       	92.51229       	93.871414      	94.59249       	93.83927       	94.75912       	95.095634      	93.606316      	94.89141       	94.676056      	92.43303       	94.651985      	95.2155        	92.4951        	94.471634      	96.582184      	93.1864        	96.69518       	95.95504       	95.403114      	96.76534       	93.966034      	93.13936       	93.95289       	93.78649       	95.683426      	93.41493       	91.99781       	93.137344      	93.349556      	93.41776       	91.31325       	91.055695      	91.74259       	92.62626       	92.64273       	90.48962       	93.81749       	92.1301        	90.85416       	92.05091       	91.46496       	92.94897       	92.2717        	89.54787       	93.09512       	92.03662       	91.775055      	90.95965       	92.96708       	92.23951       	91.05493       	90.7498        	91.48791       	91.903595      	92.92806       	91.02588       	93.57459       	92.31757       	90.07636       	93.50362       	91.44823       	90.088005      	92.642006      	91.2623        	93.02687       	92.17041       	92.37392       	93.54377       	92.750656      	93.21752       	94.98526       	93.621475      	93.02467       	94.10988       	93.37488       	92.468376      	93.45826       	92.90636       	92.48441       	92.10361       	91.4591        	92.21605       	92.319046      	93.67171       	93.04594       	93.031784      	95.15982       	93.33549       	91.99417       	94.30534       	94.556885      	92.8215        	91.79141       	91.63441       	
92.0882        	93.922554      	93.18948       	92.54327       	93.32441       	93.31601       	92.34608       	92.24199       	93.74113       	92.83186       	92.684746      	92.93152       	93.4375        	93.0693        	93.89038       	94.192986      	93.44862       	92.51942       	93.75387       	93.90833       	92.35191       	94.249176      	93.50412       	92.969734      	94.58399       	93.37904       	93.06536       	93.17436       	93.52402       	92.91277       	92.46044       	93.07667       	92.40751       	93.67728       	93.2977        	91.29155       	94.531044      	93.36923       	91.95801       	93.60164       	92.73979       	94.19139       	94.10067       	90.90092       	90.93916       	92.4631        	91.81562       	93.43376       	91.825714      	94.926796      	93.37059       	91.055305      	91.76038       	91.72262       	92.627266      	92.80592       	91.031166      	93.41887       	92.7535        	92.755295      	92.15983       	92.76122       	93.196815      	91.62055       	94.15456       	93.10548       	90.82813       	93.929695      	92.72721       	92.92546       	94.12106       	92.38305       	93.25793       	94.565254      	93.29975       	93.34691       	94.74719       	94.17476       	93.82667       	94.43082       	94.28587       	94.13597       	94.09236       	92.948906      	93.61988       	93.04659       	92.32325       	94.25305       	92.47216       	94.30568       	93.91928       	92.37386       	94.55237       	94.99696       	92.55394       	93.24196       	94.71216       	93.6613        	92.00866       	91.85709       	
94.63071       	94.02068       	93.314865      	94.81745       	94.678635      	93.63257       	94.530655      	95.00725       	93.46951       	94.123375      	95.16118       	94.30151       	94.000336      	94.73253       	94.94978       	93.31808       	93.842705      	94.536064      	93.32604       	93.74584       	93.560745      	93.82466       	94.12155       	94.11424       	94.07039       	94.017006      	93.98677       	94.21078       	93.789635      	94.05926       	94.33007       	93.62004       	94.65229       	93.85485       	92.32374       	94.801605      	94.18856       	93.50374       	92.59326       	94.45589       	94.13548       	92.384926      	92.32967       	92.58118       	93.712296      	93.77403       	92.910614      	91.66139       	93.862175      	91.60246       	91.80311       	92.18708       	92.017876      	94.43808       	93.48725       	89.79428       	93.60855       	91.39769       	91.96424       	92.90717       	93.04127       	93.94026       	93.300224      	93.5625        	93.14792       	94.570465      	93.23239       	91.80607       	93.49338       	92.93861       	95.117905      	93.73111       	93.100784      	94.21085       	94.67958       	93.36259       	94.3134        	94.96977       	94.15553       	94.48526       	94.89006       	94.297905      	93.93518       	95.012535      	94.70199       	94.34396       	94.64153       	95.02942       	93.97054       	93.82101       	94.78732       	94.4831        	94.602974      	94.274445      	94.07308       	94.5055        	93.97921       	93.591446      	93.01993       	93.033356      	
95.599815      	93.48103       	95.74014       	94.28309       	93.351875      	95.57626       	93.945366      	93.062096      	94.36116       	93.44585       	93.10499       	94.115845      	93.58284       	93.00093       	94.42281       	93.91222       	92.85859       	94.65767       	94.070305      	93.14332       	93.92479       	94.30582       	93.329506      	94.31906       	92.957184      	93.816696      	93.344604      	93.52357       	93.80488       	92.79719       	94.69295       	92.81804       	92.12281       	93.66195       	91.724174      	94.066635      	93.87414       	91.53744       	94.28975       	93.9676        	93.64237       	93.48287       	91.83821       	93.49435       	93.1469        	93.94744       	92.54479       	95.15756       	94.70133       	92.84908       	93.16682       	93.45735       	92.895195      	93.77309       	93.04001       	94.85038       	93.80168       	92.90681       	94.211174      	94.5867        	93.45955       	91.967606      	94.36362       	92.37896       	92.48743       	93.93257       	92.74751       	93.07762       	93.25249       	94.91789       	93.53771       	94.25927       	93.21118       	94.53052       	94.652664      	94.44515       	94.50859       	95.00957       	93.72241       	94.28458       	94.6351        	93.734406      	94.10269       	95.24327       	93.97647       	95.42508       	94.28702       	94.005356      	95.31706       	94.62934       	93.71947       	95.006035      	94.994125      	94.04555       	94.47084       	95.03369       	94.04772       	93.70662       	93.90301       	94.7094        	
94.22365       	94.28277       	94.19447       	93.37981       	93.621635      	93.75111       	93.084625      	93.17964       	94.284454      	94.11279       	93.83971       	93.75331       	93.68977       	94.48443       	94.54663       	94.52752       	94.71603       	95.001724      	93.82555       	95.088486      	94.96655       	94.32564       	94.03224       	94.98047       	94.58777       	94.44311       	94.559586      	94.538055      	94.97318       	93.89628       	94.839226      	93.60489       	92.970634      	93.46842       	92.54616       	93.84204       	93.637535      	92.15762       	91.405685      	92.57816       	92.800896      	93.588455      	92.70092       	91.74257       	92.6152        	93.04125       	91.74565       	90.94158       	92.32697       	91.70459       	92.17261       	91.9427        	91.91652       	92.36415       	91.320694      	91.10258       	92.77693       	92.22106       	91.34786       	91.967026      	93.15935       	91.90857       	91.86838       	92.4003        	91.49378       	92.30594       	92.53282       	93.257355      	93.516495      	92.93595       	93.84276       	93.963615      	93.86966       	94.73763       	93.33332       	92.6407        	94.44615       	92.7044        	92.8029        	94.86844       	93.42445       	92.66005       	94.53673       	93.52335       	92.353775      	94.275475      	93.81782       	92.8224        	93.52632       	93.604614      	93.35153       	93.15905       	93.7975        	93.42227       	92.594925      	93.72335       	94.06713       	93.23193       	93.20924       	93.22413       	
94.058624      	93.80702       	93.57638       	94.47127       	93.76164       	93.01449       	94.3941        	93.548355      	92.852776      	92.8847        	94.13005       	92.94156       	93.29768       	94.5173        	94.15922       	93.34639       	93.69227       	94.10273       	93.868515      	93.48722       	93.872604      	94.057175      	93.78372       	92.55116       	93.85361       	94.011955      	93.4213        	94.60828       	93.46921       	94.16927       	93.712494      	94.16788       	93.723236      	93.29562       	93.758194      	92.50891       	94.76846       	93.97106       	91.74803       	92.663155      	93.15105       	93.563965      	93.0257        	91.897575      	91.808365      	93.64949       	93.065544      	92.32002       	92.25457       	91.89497       	93.15346       	93.12308       	92.18013       	93.44413       	93.8171        	92.53863       	91.744194      	93.075714      	92.54451       	92.2825        	92.47401       	91.63419       	92.35042       	92.52155       	91.793495      	92.37207       	92.19795       	92.07828       	94.149734      	93.303375      	94.45307       	94.493256      	94.84016       	95.36878       	95.162994      	94.817505      	93.81133       	94.21027       	93.27446       	93.90321       	94.189545      	92.218414      	94.226326      	93.86652       	92.77283       	93.81749       	93.49094       	93.07833       	94.803635      	94.56323       	94.08463       	94.32486       	93.945274      	93.406494      	93.389656      	93.479935      	94.00676       	93.36929       	92.54442       	92.24667       	
95.48473       	94.684456      	94.550285      	95.690956      	94.37404       	94.062675      	95.67554       	94.37758       	94.22006       	95.58147       	94.73302       	94.65137       	93.9327        	93.88188       	94.23149       	93.61898       	93.64194       	94.12963       	93.49743       	93.68029       	93.64655       	94.17565       	93.148735      	93.82479       	93.871704      	93.41348       	93.83155       	94.584175      	94.14284       	92.94803       	94.2152        	94.13897       	93.19206       	92.47386       	94.03437       	92.265915      	93.62333       	94.13954       	92.647545      	94.130035      	93.2616        	92.06848       	92.893394      	93.712006      	93.96537       	92.22974       	91.878204      	92.36048       	92.30348       	94.14849       	92.57056       	93.89082       	93.83003       	91.969124      	91.51386       	93.21343       	92.87123       	92.8652        	91.70351       	92.88582       	91.70642       	92.25835       	92.94428       	92.01681       	93.686485      	93.14806       	93.14914       	94.06386       	93.50866       	94.420685      	93.861855      	94.098465      	93.97175       	94.67151       	94.41271       	93.52371       	94.515305      	93.62228       	93.01497       	93.85611       	92.92683       	93.99552       	94.19189       	92.41197       	94.07638       	93.80266       	93.41827       	94.521675      	94.362015      	94.48849       	95.27287       	94.510414      	94.26484       	95.17977       	94.86282       	94.09467       	94.01384       	93.98381       	94.13071       	94.15089       	
92.914665      	93.158516      	93.792564      	92.94919       	92.87055       	94.027954      	93.29121       	92.63156       	92.55265       	93.089806      	92.78963       	93.00325       	93.56214       	93.92303       	93.64879       	93.160645      	94.174225      	93.9688        	92.76661       	94.08845       	93.17619       	93.00597       	93.8652        	93.45463       	93.13041       	94.14393       	93.77356       	93.605865      	94.06685       	93.25141       	93.31864       	92.97771       	93.78076       	94.20179       	90.88964       	94.540215      	93.39769       	92.44287       	94.00457       	93.11328       	93.86637       	94.324936      	92.00354       	94.560265      	93.64306       	93.19592       	92.447945      	92.50186       	94.35922       	93.89515       	93.308014      	93.40075       	93.54081       	94.86484       	92.83782       	94.942505      	93.885216      	91.61744       	93.62427       	92.863335      	92.86246       	92.80516       	93.762985      	93.765434      	94.79131       	94.68326       	94.91414       	95.359535      	94.6752        	95.396324      	95.01571       	95.83237       	95.0089        	94.81462       	95.5992        	94.76095       	95.79          	95.03792       	94.96142       	95.1927        	95.29762       	95.35095       	95.08907       	95.0828        	95.23934       	94.76054       	93.859695      	93.615524      	94.70125       	94.43478       	94.80893       	95.78891       	94.32498       	93.88118       	95.46663       	95.14818       	94.12554       	93.76558       	93.67834       	94.24531       	
93.6246        	93.12263       	94.37179       	93.78139       	92.933136      	93.78471       	94.28617       	92.66511       	93.09594       	94.20348       	93.23482       	92.477264      	92.819214      	92.89632       	92.06298       	92.42289       	92.782745      	91.129845      	91.401505      	91.5547        	91.3683        	91.30433       	91.02846       	91.260605      	90.968414      	91.4191        	90.75436       	91.00947       	91.96998       	90.36638       	91.31917       	90.64906       	90.37062       	90.4299        	89.96451       	90.71867       	90.772545      	91.073975      	90.75994       	91.301384      	92.29971       	91.38848       	89.99601       	93.45277       	92.572014      	93.071304      	93.77843       	91.51401       	94.09016       	93.64795       	92.51852       	94.69788       	93.89135       	93.54276       	94.16702       	93.771774      	93.84705       	93.42683       	92.864914      	92.6494        	92.94437       	94.00827       	92.67885       	94.36927       	93.27234       	92.04387       	94.48797       	94.07011       	92.69132       	94.84624       	94.97408       	93.98328       	96.79449       	96.38347       	95.586395      	96.50446       	96.84157       	97.31166       	97.84286       	98.08151       	98.49829       	99.012115      	97.95332       	99.26966       	98.913704      	99.05185       	97.26973       	100.16048      	98.116684      	98.33349       	98.11876       	95.554596      	97.97606       	97.02458       	94.13007       	95.17856       	96.410324      	95.310394      	94.2768        	92.76958       	
93.90709       	93.69628       	93.23449       	92.76298       	93.16789       	92.07942       	92.05406       	93.29496       	91.96392       	91.486046      	93.28864       	92.77032       	91.36624       	93.44964       	93.25717       	91.40575       	93.582756      	93.85383       	91.95258       	93.47407       	90.931656      	93.339005      	91.540764      	92.17128       	91.94569       	91.917435      	92.197685      	90.8778        	93.2009        	91.7141        	90.45128       	92.74292       	89.92709       	91.08886       	91.896645      	90.45402       	91.89168       	91.63025       	90.51923       	90.306725      	91.07714       	90.873245      	89.224815      	89.021484      	90.56033       	90.33337       	91.896324      	90.23156       	87.54883       	91.81591       	88.454636      	89.43063       	89.49329       	89.96745       	91.66072       	89.757675      	92.19127       	90.92803       	89.99477       	91.33699       	89.947525      	91.184586      	92.0325        	92.69161       	91.412964      	91.94622       	93.35758       	91.86304       	92.88653       	92.51189       	92.13856       	94.15157       	92.1363        	92.85966       	94.455894      	92.82915       	93.219154      	92.815834      	91.862045      	92.30238       	93.820114      	93.617744      	92.92224       	92.11559       	93.4248        	91.91118       	92.098076      	92.149994      	92.05788       	92.68384       	92.18002       	93.103165      	93.15856       	92.49686       	93.04907       	92.8084        	92.54456       	92.175735      	91.6117        	91.56512       	
93.32608       	94.17709       	94.373985      	94.664116      	94.75258       	95.6104        	93.6795        	94.97033       	93.305626      	94.79614       	94.14287       	93.41025       	94.50593       	94.50607       	93.79698       	94.95673       	94.16268       	95.45358       	93.806435      	94.24886       	94.44926       	93.40804       	93.62477       	94.91679       	92.879166      	94.25891       	93.0942        	92.310585      	94.03264       	93.064575      	93.687164      	94.55162       	92.9366        	93.20011       	93.433754      	93.59876       	92.92024       	94.151764      	93.81398       	92.45433       	93.48686       	92.29344       	93.32497       	93.46135       	91.46549       	90.68549       	93.18468       	92.197296      	93.61528       	92.18949       	93.57454       	93.194336      	92.153336      	93.68354       	92.785904      	93.92785       	93.307785      	93.6455        	93.66183       	92.07198       	94.37511       	93.09579       	94.14853       	94.05424       	94.569046      	94.39051       	93.107895      	94.9615        	93.373245      	93.29687       	94.862274      	94.75998       	95.06474       	94.984795      	94.7072        	94.91834       	93.56387       	93.94453       	94.11191       	94.76075       	93.40575       	92.08037       	94.6797        	93.38756       	92.85625       	93.74346       	92.43415       	93.79353       	93.683624      	94.03138       	95.099525      	93.180626      	95.46971       	93.60531       	93.90287       	94.110214      	93.85497       	93.52586       	93.16805       	93.202446      	
94.58297       	93.89803       	96.16336       	95.39807       	94.63119       	96.32874       	94.77935       	93.67156       	95.774055      	94.78556       	93.31535       	95.187225      	95.05122       	93.95436       	94.651375      	93.96849       	93.029366      	94.50135       	93.827255      	92.950226      	95.22896       	94.46445       	92.41011       	94.71345       	94.14072       	91.94987       	93.03073       	93.696884      	91.59111       	93.19413       	93.41895       	92.83969       	92.85531       	92.8755        	92.31503       	92.72779       	93.08276       	93.03669       	91.96406       	93.93945       	91.6703        	92.42534       	93.29647       	92.70715       	92.86894       	92.46532       	91.65132       	90.686386      	92.608444      	92.47452       	91.73277       	92.65373       	92.164604      	92.08996       	92.59379       	92.103836      	92.63167       	92.01425       	92.233284      	93.15446       	92.28971       	91.78691       	93.344315      	92.83513       	93.512085      	93.71428       	92.8496        	92.97448       	93.403244      	92.34663       	93.64209       	93.14755       	92.49147       	93.61466       	93.7069        	92.96329       	91.818245      	93.1299        	92.69071       	93.12574       	93.82271       	91.86178       	94.34999       	93.00711       	92.968796      	92.23705       	93.69622       	93.67089       	92.18285       	91.879425      	92.487656      	93.03621       	93.47619       	92.61553       	93.88695       	93.59204       	92.69606       	93.002144      	93.74688       	93.887436      	
93.30535       	93.795616      	94.77603       	94.357834      	92.63588       	94.32924       	92.85422       	93.807915      	93.45747       	92.162056      	93.16322       	94.51049       	93.79765       	92.81079       	94.43167       	93.43254       	93.219894      	93.42904       	93.66847       	93.53853       	93.53125       	94.07514       	92.36185       	92.7522        	92.94473       	91.57928       	94.21935       	92.26754       	91.99715       	94.70673       	92.491425      	92.927246      	93.6777        	92.123665      	92.21378       	92.33355       	92.39246       	93.33635       	92.02316       	93.04738       	92.5559        	91.47966       	91.46931       	91.58378       	92.15601       	92.316124      	92.64753       	92.22116       	92.42628       	93.05279       	92.20349       	93.31494       	93.640594      	92.31874       	93.90654       	93.50159       	93.015884      	93.37322       	94.15856       	93.44494       	93.245514      	93.95594       	92.95381       	93.90378       	93.810104      	93.862076      	94.10252       	94.50786       	93.9755        	94.56627       	95.19565       	94.5844        	93.61662       	94.73955       	93.274414      	93.97238       	94.58365       	92.4714        	94.12288       	93.388336      	93.58742       	92.11348       	95.33742       	94.491714      	92.53075       	93.681114      	93.77717       	94.31353       	95.185104      	92.95324       	92.13881       	93.72282       	92.06864       	92.795334      	92.79369       	92.34534       	91.85633       	93.62012       	93.17369       	93.177895      	
92.12208       	93.535515      	93.8014        	93.153595      	93.6314        	92.26432       	93.183876      	92.31506       	90.87666       	92.24385       	93.06529       	91.9421        	91.898476      	93.47819       	91.97746       	91.0919        	92.5879        	91.83215       	91.108505      	92.306885      	91.75513       	91.8566        	91.3524        	91.60323       	91.7723        	91.122765      	91.02684       	90.619644      	91.61011       	90.61286       	91.69572       	93.208725      	92.573654      	90.9539        	92.78484       	91.346054      	92.41188       	92.30188       	93.13109       	92.65751       	91.33975       	91.92627       	91.77785       	92.324776      	92.84917       	91.73959       	93.3362        	93.36384       	93.56904       	93.78029       	92.94683       	92.36868       	93.312874      	92.33067       	93.26417       	92.686295      	92.4914        	93.64163       	93.44019       	93.43617       	94.131485      	94.560356      	93.811165      	95.23902       	95.0765        	94.83156       	96.369         	95.03421       	93.76057       	95.860146      	94.056625      	93.64114       	94.38787       	93.704506      	94.80348       	94.18675       	93.59252       	94.329025      	94.93123       	93.78908       	92.862305      	92.88475       	93.64644       	94.01274       	93.805626      	92.215614      	93.84451       	94.54815       	92.75066       	91.40756       	93.886314      	93.36427       	93.27381       	92.70577       	94.122696      	93.9045        	93.71532       	94.18478       	94.32457       	94.04583       	
93.25386       	93.70865       	93.45665       	93.18123       	93.7597        	93.50618       	93.3626        	93.58077       	93.09577       	92.96672       	92.88392       	93.67186       	93.42998       	93.64421       	93.29058       	93.08515       	93.17646       	92.87763       	92.39108       	93.44732       	93.488266      	93.20215       	93.25398       	94.11291       	93.47369       	93.31841       	92.468544      	92.20949       	92.8554        	93.029015      	92.62802       	93.092545      	93.65064       	93.50935       	93.50453       	94.112656      	93.706055      	93.420235      	94.11121       	93.73718       	93.26226       	93.40278       	94.511314      	93.563286      	92.35212       	94.309784      	93.037315      	94.358         	93.50731       	93.65539       	93.84622       	93.706535      	93.6561        	94.06337       	94.407646      	93.75875       	94.92668       	93.33251       	94.290085      	94.96597       	93.30118       	95.74468       	94.523674      	94.12198       	95.394196      	94.49024       	95.42348       	94.84306       	95.52372       	94.7056        	95.888306      	94.51277       	94.77657       	95.593124      	94.15613       	95.22649       	94.76515       	93.54373       	93.1947        	94.27729       	95.05535       	95.40446       	93.09154       	92.186714      	93.43645       	94.02837       	94.354034      	91.812164      	94.36108       	93.16895       	93.223145      	94.00056       	93.514534      	94.41875       	93.09875       	94.59346       	94.06611       	93.4832        	92.68953       	93.13093       	
93.75109       	93.61968       	93.49914       	92.61597       	92.841545      	92.11674       	92.56385       	91.80122       	92.50849       	94.12557       	92.9377        	92.64638       	92.63902       	93.40767       	92.616005      	92.8547        	93.11903       	92.73758       	93.40081       	92.90202       	92.89867       	93.44076       	93.73003       	92.14588       	92.13549       	92.59767       	92.263176      	91.76374       	93.08411       	92.03736       	91.62231       	93.5502        	91.58464       	91.563034      	93.051346      	92.42889       	92.6512        	92.68067       	91.89828       	91.86937       	92.865814      	92.98412       	92.063385      	91.30071       	92.542656      	91.880295      	93.05294       	92.087616      	91.6648        	92.96998       	91.69505       	92.18644       	93.367805      	92.48656       	93.26871       	93.34635       	92.937614      	93.81833       	94.91055       	93.801994      	94.32079       	93.513115      	94.20544       	94.89908       	93.57451       	94.83714       	95.880875      	94.64807       	95.677605      	94.574905      	95.928635      	94.77165       	93.70119       	93.8549        	93.511406      	95.20003       	93.932816      	94.23953       	94.52452       	92.91548       	95.17741       	94.9866        	92.863266      	92.530655      	94.09082       	93.82666       	94.20086       	93.42798       	91.87732       	94.15013       	94.17613       	92.68888       	92.010345      	94.60821       	93.09529       	92.893196      	93.53555       	92.938644      	92.916855      	92.79091       	
95.079666      	93.892944      	95.26051       	95.2744        	94.09432       	95.6508        	93.80073       	93.05639       	92.87312       	93.56707       	93.53325       	92.713615      	93.08206       	93.51095       	93.201         	92.95634       	93.86669       	92.80423       	93.00846       	93.53581       	93.16579       	92.63576       	93.03991       	94.14791       	92.954475      	92.911         	93.73809       	93.05202       	93.80534       	93.552505      	93.15491       	92.963165      	93.47038       	93.64233       	93.628586      	93.72327       	92.66032       	92.94152       	93.95638       	93.104126      	94.448975      	93.30424       	91.96151       	93.45919       	92.63902       	92.9016        	92.944534      	93.0311        	93.3441        	92.946945      	92.77082       	92.82525       	94.05331       	92.773026      	94.04125       	93.64755       	93.84238       	93.74438       	93.89578       	93.657074      	94.20219       	94.56625       	93.83898       	94.36657       	94.75188       	94.52016       	95.16834       	95.12196       	93.8848        	96.11943       	94.562294      	93.56017       	95.23774       	94.68987       	96.061676      	95.7775        	93.601845      	96.60994       	94.90214       	94.4359        	94.47893       	92.473305      	95.01219       	94.04794       	95.228         	94.56731       	95.964066      	96.361984      	94.23558       	93.55388       	94.677925      	94.66949       	95.1242        	94.25342       	95.33836       	95.05555       	94.42083       	93.519775      	95.12746       	95.14994       	
94.756         	94.24346       	95.59834       	93.12208       	94.59511       	92.2889        	92.63111       	94.18311       	93.02326       	92.58505       	93.53744       	93.61119       	92.64677       	92.74096       	93.44327       	92.19817       	92.23317       	92.27324       	92.840294      	92.49621       	92.51245       	93.131714      	91.96196       	92.376884      	93.988396      	92.51818       	93.19656       	93.9113        	91.5776        	93.44945       	94.18359       	91.3435        	93.74234       	93.31991       	93.0942        	92.88244       	91.921394      	92.33765       	92.57267       	92.24442       	92.26777       	91.62251       	92.48136       	91.9795        	91.846         	91.86015       	91.89818       	92.95708       	91.65678       	92.41473       	94.15637       	91.53059       	93.620605      	93.95255       	92.54037       	93.9696        	92.821945      	92.31132       	92.97128       	92.09962       	93.049995      	93.44495       	93.0984        	93.66451       	93.779175      	93.7694        	93.815704      	94.389084      	94.29634       	94.82985       	95.045784      	93.79313       	94.80441       	93.4019        	92.25494       	94.19632       	92.36877       	94.2597        	95.39837       	91.29923       	96.10893       	92.534134      	92.51988       	94.11722       	94.00968       	95.21435       	93.038536      	90.94498       	92.2704        	93.51591       	94.273834      	91.990685      	90.349625      	94.29335       	91.41207       	91.03988       	92.41612       	92.993256      	92.55135       	92.624916      	
94.054214      	92.74825       	94.42004       	92.508896      	93.379074      	92.716515      	92.91926       	92.18126       	92.82161       	93.21373       	92.54821       	92.055595      	93.41419       	92.79583       	91.862625      	93.08023       	92.06302       	91.703804      	93.23537       	91.85726       	91.24173       	92.35645       	91.972534      	91.37004       	92.34464       	91.88724       	92.182144      	91.860596      	92.56983       	92.68908       	92.889145      	93.34546       	92.42728       	92.491486      	93.5829        	92.968         	92.25248       	92.04915       	92.05486       	92.503555      	92.23881       	92.06644       	93.17078       	92.76941       	92.00229       	92.18564       	92.689766      	92.702675      	93.925835      	93.28268       	93.04483       	93.875206      	92.75225       	93.40541       	93.73172       	92.68497       	93.94322       	93.949814      	92.77312       	94.474396      	93.93132       	93.41869       	94.427536      	94.06908       	93.42452       	94.42528       	93.95201       	93.48597       	94.58817       	93.885216      	94.44195       	94.152695      	94.24855       	94.06796       	94.001816      	93.51925       	92.20964       	94.54986       	94.14519       	93.299805      	93.37678       	94.59236       	94.68724       	93.90874       	92.580086      	91.616104      	93.80163       	93.28674       	92.61259       	92.98558       	94.24043       	94.44862       	94.007126      	91.948364      	94.41071       	93.533676      	93.106445      	93.131996      	94.09129       	94.44559       	
95.13981       	94.92658       	94.49239       	93.38583       	93.848465      	93.38217       	93.515015      	94.324615      	93.76097       	93.31757       	93.57605       	93.1916        	92.38807       	92.31627       	93.33139       	93.35087       	92.1073        	93.222         	93.12816       	91.718155      	93.073555      	93.68037       	91.41093       	93.76323       	92.79272       	93.21059       	94.09387       	92.82289       	93.29691       	93.2609        	93.87697       	92.64217       	92.76926       	92.73079       	91.989365      	93.11215       	91.60465       	92.01774       	94.64365       	92.828766      	93.12622       	92.87524       	91.20878       	93.75387       	92.99666       	92.58876       	93.10566       	92.54622       	93.31678       	92.66508       	93.5585        	94.003174      	94.269035      	94.32772       	94.440765      	95.502884      	93.78438       	96.0808        	94.244675      	91.75854       	94.55339       	92.489456      	92.41158       	93.150215      	92.35646       	95.36337       	92.972824      	93.66236       	96.14544       	94.42536       	96.22183       	95.31674       	92.35688       	93.9375        	93.8763        	95.0565        	95.06419       	93.730545      	94.68346       	94.85444       	94.873955      	93.45434       	95.5194        	94.5256        	92.96003       	93.642624      	93.00069       	94.90297       	94.423065      	92.188484      	92.22295       	93.50207       	91.77823       	93.012         	92.42469       	92.461296      	92.56973       	94.365425      	93.47262       	92.83852       	
94.19658       	94.95659       	93.34277       	94.41226       	94.077805      	92.952644      	94.36252       	94.445724      	92.48975       	93.794754      	94.14518       	93.2091        	93.15815       	94.51758       	93.01111       	92.56603       	94.58131       	94.02666       	92.33769       	94.76055       	93.156975      	92.49976       	94.43343       	92.25566       	92.89855       	93.86767       	92.47423       	93.26491       	93.6971        	92.8935        	93.40089       	93.65792       	91.7544        	93.238045      	93.77454       	92.28371       	93.09159       	92.814926      	92.92198       	93.194954      	92.62227       	92.829025      	93.34998       	93.04737       	93.4666        	94.20163       	92.69359       	94.56438       	93.88721       	92.688484      	93.68525       	92.2613        	93.38052       	92.132095      	92.35279       	93.804855      	93.358696      	93.883286      	94.46845       	94.21361       	94.18299       	93.96684       	95.105484      	93.710365      	94.643394      	96.46765       	93.95958       	96.16923       	94.97347       	95.183624      	95.150185      	93.98961       	94.16442       	94.331375      	94.55619       	95.20142       	93.982956      	96.375984      	95.65319       	94.9003        	94.074356      	95.47032       	94.73996       	93.25561       	93.696236      	93.33041       	94.177155      	95.15677       	92.661125      	91.078384      	94.33601       	92.46008       	91.782234      	93.52571       	92.410164      	92.439445      	94.35826       	93.83784       	93.21648       	92.55042       	
93.07206       	93.06988       	92.72282       	94.115166      	93.23396       	92.49428       	94.06237       	94.25031       	91.68792       	93.83843       	94.294075      	91.99755       	93.343506      	94.79039       	92.263916      	91.96723       	94.12432       	92.5027        	92.50507       	94.33269       	93.013596      	93.31128       	93.16763       	92.86607       	95.13209       	93.130615      	94.5054        	94.22093       	93.44085       	95.105225      	93.36537       	94.57756       	94.48771       	90.935684      	94.85684       	92.84607       	91.88699       	93.95769       	91.64063       	94.04133       	92.97386       	92.87578       	93.128006      	92.65886       	93.40913       	93.2456        	94.95155       	93.81173       	94.30074       	95.16629       	91.83684       	95.689545      	93.09362       	95.7985        	94.75209       	92.79494       	95.36867       	93.13896       	93.284584      	95.40465       	93.54632       	95.23487       	94.9331        	94.84569       	94.548065      	94.739136      	96.02284       	94.66252       	95.893555      	93.75582       	95.92657       	96.93721       	93.15764       	96.81825       	93.945         	94.27291       	96.21132       	94.66975       	96.84921       	94.2323        	92.707016      	94.23138       	94.14294       	94.92575       	93.21193       	91.98029       	93.56904       	93.5518        	94.133995      	91.53979       	95.1664        	93.57829       	90.51021       	95.49651       	92.53435       	90.89964       	94.19833       	93.185875      	91.78978       	91.69043       	
91.76416       	92.35384       	91.0664        	91.69111       	92.28197       	90.65592       	91.05714       	91.4775        	90.841385      	90.128555      	91.463425      	91.273994      	90.772285      	91.026054      	91.19798       	90.561966      	91.51282       	90.42163       	90.255295      	91.351456      	90.055016      	90.522934      	91.98856       	89.96563       	91.30416       	90.58934       	89.7326        	92.13399       	89.30014       	91.80688       	93.73868       	91.14507       	91.93929       	91.9644        	89.99536       	91.85466       	91.20893       	90.70137       	91.46583       	91.13953       	90.63785       	90.91045       	92.02624       	90.64993       	91.88377       	91.997444      	92.712975      	92.82286       	89.14737       	92.811935      	90.768684      	89.735275      	93.19006       	90.02475       	92.88907       	91.836494      	91.24399       	92.867874      	91.343124      	92.13749       	92.22433       	92.14955       	93.19622       	93.31178       	93.10241       	92.58707       	93.59989       	92.96236       	93.06641       	93.14714       	93.02196       	94.69678       	92.69057       	94.35596       	94.785736      	92.344284      	92.02904       	93.4982        	92.57905       	93.615265      	92.69104       	94.70381       	93.67229       	92.81564       	93.0437        	94.00036       	93.9703        	92.39001       	92.01152       	93.808304      	92.03929       	92.939316      	92.30736       	92.9298        	94.31726       	92.32666       	92.9133        	94.47457       	94.915565      	94.28033       	
92.85001       	93.19076       	92.7985        	92.80116       	93.70092       	93.3653        	93.00048       	93.91026       	94.00402       	92.2001        	93.24972       	94.25607       	92.22079       	93.02586       	95.15486       	93.47478       	92.56592       	94.33048       	93.05844       	92.29457       	93.69629       	92.85939       	92.42612       	92.55722       	93.78765       	92.71396       	93.583145      	93.90015       	93.68397       	93.29916       	94.12096       	92.710655      	92.5244        	93.90758       	91.831955      	94.223526      	94.04391       	92.19606       	94.43664       	92.55815       	94.24174       	93.63747       	94.3726        	94.28227       	93.29456       	95.22782       	93.404526      	94.00329       	93.913315      	93.30972       	94.75817       	93.24908       	94.5841        	94.379776      	93.109604      	95.7537        	92.960045      	94.67933       	96.12873       	94.95307       	96.63481       	95.0385        	96.62455       	96.149055      	94.72149       	97.57047       	95.70006       	97.47106       	96.727646      	94.32028       	97.18511       	95.39283       	95.16611       	96.090485      	95.56794       	95.355194      	95.30741       	96.86089       	96.36008       	96.11169       	94.8265        	97.891075      	96.46423       	94.218666      	94.9743        	95.08479       	95.89577       	97.26631       	93.86548       	97.31062       	95.972206      	92.45817       	93.49549       	93.75341       	93.11101       	93.961334      	93.91853       	93.34742       	93.37206       	93.866135      	
94.77703       	94.54939       	92.109856      	93.68924       	93.2037        	92.36683       	93.24254       	91.91826       	92.08672       	92.81527       	91.72824       	92.00701       	92.14395       	92.08847       	92.39039       	91.83582       	92.30298       	92.913376      	91.378494      	91.050224      	93.08349       	92.327934      	90.87092       	93.44235       	90.55299       	92.45756       	93.984505      	91.73467       	93.8171        	93.07317       	90.82186       	92.853874      	91.00261       	90.765144      	91.94776       	90.96175       	92.4605        	91.06359       	91.37695       	92.69072       	92.01493       	91.84464       	92.81712       	92.320076      	91.835014      	92.941696      	91.010284      	93.88376       	92.11268       	91.650116      	93.42796       	92.82307       	93.74688       	92.59432       	93.45761       	93.186005      	94.55042       	94.41479       	93.23418       	94.28956       	93.75719       	94.14362       	93.75788       	93.68167       	94.00495       	93.62006       	93.66651       	94.669075      	93.805244      	95.014656      	94.4469        	93.8903        	95.33578       	94.40861       	95.57226       	95.184975      	95.67554       	95.02332       	93.84309       	93.95208       	94.310394      	94.91112       	94.71056       	92.26881       	96.18205       	93.336555      	91.39192       	93.30953       	91.88195       	92.91059       	93.38219       	93.69905       	94.50628       	92.591805      	93.759895      	94.23067       	93.62158       	93.83302       	93.78553       	93.735214      	
93.46247       	95.0513        	92.89625       	94.995926      	94.559944      	93.21233       	93.71492       	91.52709       	93.83145       	92.61911       	92.38497       	93.66716       	91.29247       	92.32043       	92.982475      	92.584366      	92.19377       	92.014656      	92.12751       	92.57907       	93.18857       	91.763596      	92.81098       	92.096436      	90.51071       	92.791306      	92.40357       	91.76407       	93.617065      	91.26999       	93.12788       	93.2974        	91.89029       	93.23492       	92.26834       	92.4695        	93.27477       	92.86653       	92.528435      	93.108116      	91.6604        	93.38266       	93.847824      	92.899185      	94.4619        	93.736435      	94.842545      	93.76208       	93.93499       	94.57952       	93.357086      	93.59815       	94.19699       	93.74272       	93.68523       	94.51497       	93.5099        	94.03805       	94.70749       	93.38466       	95.26436       	95.41963       	95.36201       	96.30607       	94.600395      	94.85189       	94.95061       	93.37011       	94.689255      	93.85867       	93.48727       	93.944016      	94.25545       	94.88379       	93.69328       	93.01214       	93.02015       	95.16297       	94.13481       	95.987495      	94.62009       	92.77499       	95.14686       	92.949905      	92.839485      	94.91273       	93.54909       	94.81497       	93.01454       	94.7598        	92.95865       	92.430595      	94.276276      	92.17447       	96.24855       	93.22559       	91.67252       	96.279015      	95.91491       	93.90465       	
92.62424       	92.57699       	94.25272       	91.74352       	94.824165      	89.663414      	93.54932       	92.99259       	90.08261       	94.6261        	89.33721       	92.49434       	91.87659       	89.71398       	94.24323       	91.36483       	89.4021        	93.52064       	92.306595      	89.40633       	92.85008       	91.1469        	90.77979       	93.12517       	90.72818       	93.05319       	91.431526      	91.09138       	92.8956        	90.517365      	91.32435       	90.09032       	90.18218       	92.53632       	90.39827       	91.14111       	92.62879       	90.8981        	92.34816       	91.53744       	92.04801       	91.80334       	91.627686      	91.66801       	91.59256       	93.09456       	91.36732       	94.38575       	92.73877       	90.74679       	94.93946       	90.163246      	94.75231       	93.15138       	91.76871       	93.547134      	92.896576      	93.45285       	94.49747       	93.05638       	94.153755      	93.54693       	94.27637       	93.699135      	93.076675      	93.930435      	92.50036       	94.108025      	92.91325       	92.728065      	93.1646        	92.42789       	95.04806       	92.60096       	95.132065      	94.29762       	92.860344      	95.76391       	94.40516       	95.15378       	94.85921       	92.4394        	91.31148       	93.56917       	91.568596      	93.096085      	92.70096       	92.17592       	93.03049       	92.932846      	91.9027        	94.0721        	92.615425      	94.16187       	93.66041       	92.66202       	94.11159       	92.82636       	91.4653        	91.18905       	
94.20844       	92.68334       	93.350716      	92.917465      	92.68287       	92.40119       	92.56084       	93.11974       	92.51322       	93.35025       	92.067856      	92.907906      	93.126045      	91.36732       	93.81576       	92.411285      	91.395355      	93.532974      	91.70008       	91.404335      	92.25524       	91.87975       	91.22384       	92.67711       	92.06015       	91.32327       	92.31731       	91.609024      	91.859245      	92.418335      	91.60992       	92.03639       	91.97398       	92.13998       	91.219124      	92.58292       	90.91326       	91.48906       	93.122284      	89.69556       	93.02227       	90.06169       	91.00263       	94.390816      	90.52858       	94.38716       	93.06298       	91.90341       	94.56974       	91.357315      	93.92302       	92.75441       	92.68061       	93.76261       	92.36133       	93.56051       	93.21333       	92.97944       	93.307846      	93.532394      	93.10084       	93.183914      	93.37828       	93.77813       	92.73033       	94.573616      	92.75072       	93.90034       	95.19629       	93.50813       	94.55839       	94.14359       	94.30246       	95.95264       	94.743126      	94.70922       	94.37663       	95.24987       	93.885345      	95.031456      	93.98686       	93.504326      	94.551315      	93.33705       	92.89224       	93.65979       	92.08903       	93.34432       	92.83674       	92.423386      	93.9253        	93.25717       	93.65972       	92.59467       	93.79639       	93.93281       	92.74431       	93.5522        	93.933975      	93.75548       	
92.50728       	92.40101       	93.3824        	93.0845        	92.86255       	93.427925      	93.70119       	93.36315       	93.12996       	93.754974      	92.88284       	92.72147       	92.41329       	92.208626      	92.369125      	91.772224      	91.831635      	92.78847       	92.18417       	91.22863       	92.01208       	91.993286      	91.054085      	92.75333       	91.78248       	91.79034       	92.477646      	91.10507       	92.03061       	92.348625      	91.60316       	91.93269       	92.25798       	91.87287       	92.18632       	91.97032       	92.27968       	91.60262       	93.38532       	91.62161       	91.81636       	93.34883       	91.871414      	93.92701       	92.49234       	92.108536      	94.35674       	92.75525       	93.83012       	93.46479       	93.69776       	93.962006      	93.619354      	93.12614       	94.029655      	94.420975      	93.56355       	93.92331       	93.36288       	93.422195      	93.73127       	94.446625      	93.47051       	94.0726        	94.36307       	93.178604      	95.21143       	93.68245       	96.25898       	94.965935      	94.61298       	97.17292       	93.702965      	96.36882       	95.107544      	94.82785       	94.80449       	93.733635      	93.61617       	94.11076       	93.68124       	94.61251       	94.38932       	93.796104      	93.75638       	93.818146      	93.10209       	94.52251       	93.38691       	92.784386      	93.80763       	92.95485       	94.250824      	93.56734       	92.11535       	93.73568       	94.07621       	93.44886       	92.84192       	92.68108       	
93.31883       	92.9424        	93.42903       	91.75366       	92.53673       	92.13714       	92.97316       	92.706         	92.68079       	92.70075       	93.13351       	93.580986      	92.704414      	93.18823       	91.25923       	92.764114      	92.46826       	91.09687       	93.062836      	92.6453        	90.17708       	91.676285      	93.09522       	91.31282       	93.20625       	90.43675       	91.61324       	92.03918       	90.70857       	91.982544      	91.31462       	91.477         	91.9043        	90.97847       	92.40942       	91.91148       	91.40711       	92.38642       	92.20524       	91.785904      	92.3444        	92.515816      	93.07204       	93.9685        	93.264336      	94.27459       	93.88608       	93.27776       	94.049614      	93.22606       	92.69805       	94.340034      	93.16463       	94.83984       	94.12778       	93.02666       	92.65135       	93.5277        	93.71662       	93.12794       	94.27906       	93.23349       	92.31908       	94.481895      	92.965904      	95.27973       	94.40701       	92.56127       	95.06539       	93.232666      	95.04953       	93.99858       	93.70964       	94.99158       	94.02199       	94.551865      	94.875984      	94.69805       	94.808334      	95.069756      	95.10251       	94.07326       	95.17221       	94.31756       	92.62702       	95.39671       	93.32336       	94.93891       	93.991196      	92.15914       	94.275604      	93.183136      	94.41659       	94.70604       	94.54202       	93.299446      	93.14963       	93.96998       	94.63883       	94.5009        	
92.91832       	93.41902       	94.230804      	92.06341       	94.85709       	92.387535      	93.38021       	94.21086       	91.286835      	93.99844       	92.14925       	93.90677       	94.049484      	92.50483       	93.95634       	92.36593       	92.507256      	92.39255       	91.379974      	92.5486        	93.65865       	91.68957       	92.36642       	92.54024       	91.53218       	92.10252       	91.69079       	90.15747       	92.66989       	92.27007       	90.55379       	93.29981       	91.13201       	91.282234      	92.83177       	91.171684      	92.22203       	91.621544      	91.30172       	93.42021       	91.771         	91.719986      	93.024704      	91.422226      	91.83955       	92.138985      	91.01541       	94.32809       	90.95983       	94.99224       	91.105034      	91.711426      	95.29426       	92.79465       	95.53996       	92.95743       	92.68831       	95.77458       	93.96419       	94.78763       	94.5701        	93.36718       	95.53581       	94.82171       	93.39101       	94.8071        	94.89693       	94.035995      	94.402016      	94.51258       	94.60334       	95.22475       	93.93727       	94.49107       	94.20194       	93.328995      	94.38334       	94.02298       	93.13574       	94.30002       	93.50607       	92.624664      	94.33294       	93.47124       	92.27387       	94.26685       	92.83929       	92.251274      	93.956314      	92.298706      	94.113396      	92.9404        	94.17887       	94.69957       	93.72468       	93.88234       	95.10622       	93.849434      	93.319824      	93.42394       	
91.80565       	94.852776      	91.9319        	95.474976      	93.43594       	91.37117       	95.21473       	91.723404      	92.429634      	93.77063       	91.06113       	94.09762       	91.19737       	92.955154      	93.29233       	93.89599       	93.328705      	91.653755      	93.102295      	91.95199       	90.52023       	93.13036       	93.21193       	91.87633       	93.77691       	92.89682       	91.93104       	91.8894        	91.86217       	91.61364       	91.51785       	92.261826      	90.958115      	92.98244       	91.463745      	90.91458       	93.20993       	90.41486       	91.824936      	93.332794      	91.160515      	93.50998       	90.99381       	91.17599       	92.860435      	91.75384       	94.02703       	92.8251        	92.406586      	93.18453       	92.31918       	93.01796       	91.75929       	93.425735      	92.62428       	93.146675      	94.06966       	91.81391       	94.77147       	93.28847       	91.10517       	94.41508       	92.45131       	94.42502       	93.884674      	92.474495      	94.62613       	93.064644      	94.41903       	94.329025      	93.93898       	94.2806        	93.78601       	94.06735       	92.46952       	93.01822       	94.14877       	92.346954      	95.70354       	94.48122       	94.1462        	95.34293       	92.065094      	94.75208       	93.467316      	90.983406      	94.414375      	92.14095       	94.39896       	93.3166        	91.94675       	93.49429       	92.32114       	94.60422       	92.52063       	94.67939       	93.1679        	92.19523       	92.94384       	94.0614        	
93.51411       	92.685745      	92.770836      	93.20177       	92.150566      	93.58096       	91.946724      	92.9574        	93.24069       	91.01515       	92.175285      	91.07597       	90.86853       	93.16          	91.10318       	92.64073       	91.563736      	91.49504       	91.95616       	91.939766      	92.37535       	92.58815       	93.5306        	93.34541       	90.98498       	93.10869       	91.15292       	92.17293       	91.14256       	90.91312       	92.38078       	88.981255      	91.25052       	91.073         	89.86389       	91.75274       	91.76615       	91.789505      	92.073456      	92.03141       	92.227455      	92.15942       	92.59941       	92.13604       	91.77904       	91.90677       	90.85169       	92.8077        	90.75906       	92.16614       	90.88822       	92.177536      	93.453705      	92.441055      	92.92873       	92.9415        	93.27486       	92.87719       	93.49553       	94.297         	92.49975       	93.95553       	94.073326      	93.83141       	95.15117       	92.16065       	95.34612       	93.231766      	93.77784       	95.50809       	92.62049       	95.57471       	94.33683       	92.7154        	94.68876       	94.46573       	93.627         	95.6084        	93.57802       	94.993576      	95.05781       	91.531364      	95.75537       	92.789375      	91.72649       	93.869095      	92.42408       	92.81788       	92.16435       	92.68522       	92.25119       	92.336235      	93.15752       	92.11014       	92.72538       	92.90735       	93.98071       	93.628876      	93.03105       	92.53295       	
92.806694      	93.05209       	92.98707       	93.59608       	92.785         	93.77552       	93.389145      	91.26146       	93.72801       	92.5363        	90.87586       	93.54395       	91.75432       	92.13406       	92.01146       	91.3553        	92.82718       	91.22421       	92.08847       	91.46622       	92.002235      	93.86344       	92.46233       	93.17517       	93.04576       	92.86138       	92.4694        	92.37309       	92.763565      	91.97398       	92.27921       	92.63672       	91.48121       	93.37697       	92.91858       	92.552086      	93.81377       	92.68941       	93.20436       	93.08892       	92.48058       	93.26097       	93.322395      	94.547035      	93.26067       	94.37407       	93.4698        	94.73068       	93.994064      	92.35637       	94.979454      	92.30469       	93.25264       	93.98365       	93.576004      	93.73389       	93.76716       	94.56363       	93.82625       	94.561005      	94.004         	93.507164      	94.96838       	94.20727       	95.764336      	94.985916      	93.897354      	96.063         	93.68849       	94.45126       	95.9566        	94.40644       	96.81286       	94.27025       	94.19404       	94.352776      	94.73036       	94.38376       	95.5402        	95.264725      	93.45916       	96.23732       	94.68108       	92.4213        	95.02169       	93.10395       	93.09258       	93.76897       	92.944145      	94.87569       	93.83648       	93.71663       	95.58733       	93.486404      	94.55523       	93.92685       	94.04794       	95.633545      	95.72922       	95.26779       	
93.25693       	94.038445      	92.402054      	93.32183       	93.41283       	92.85853       	93.16654       	93.2756        	91.82386       	92.86693       	92.929436      	91.79424       	93.5274        	92.80893       	91.91513       	93.494026      	91.17323       	93.11931       	92.40775       	92.477295      	93.301094      	91.695244      	92.98799       	92.48029       	91.80139       	92.52832       	92.139244      	91.51247       	91.39637       	90.546844      	91.59163       	91.537025      	91.53791       	92.37399       	91.991684      	91.99646       	92.645874      	91.39711       	93.53725       	91.66576       	93.62731       	92.24841       	91.620026      	93.85548       	91.006256      	93.79979       	94.05971       	92.00636       	94.81091       	92.13139       	94.97281       	93.627         	91.366165      	95.08183       	92.62068       	93.016716      	93.91302       	93.48985       	94.64592       	94.05911       	94.93103       	94.48534       	95.481285      	95.38261       	94.237175      	96.494415      	95.057816      	94.900185      	96.93892       	95.208694      	95.24243       	96.457184      	94.63997       	94.779335      	94.71156       	93.78417       	95.03228       	94.80092       	94.38912       	94.929596      	94.09063       	93.47027       	94.280876      	94.24472       	93.312454      	94.76043       	94.26369       	91.57144       	94.84767       	93.197395      	91.419304      	94.11173       	92.44787       	92.221146      	94.36011       	93.75575       	94.19472       	94.26045       	93.56102       	93.50473       	
92.6359        	92.31446       	92.05148       	93.55436       	93.00727       	91.713745      	91.588394      	92.21568       	91.06648       	92.75981       	90.809906      	92.00517       	93.1727        	92.111626      	92.80618       	91.91347       	91.81702       	92.067696      	92.74236       	92.158165      	92.00631       	93.859         	91.85096       	92.82992       	92.691025      	91.70836       	93.91643       	93.02026       	92.33011       	92.32403       	91.2924        	92.90388       	91.63402       	91.36824       	93.22889       	92.22741       	92.193474      	94.10953       	92.739815      	93.438774      	92.758545      	92.627556      	93.04991       	92.74904       	93.19763       	92.999794      	92.05673       	91.931595      	91.770515      	93.68846       	91.82211       	92.81083       	92.80587       	92.38403       	93.66312       	92.76838       	93.16098       	94.8456        	92.34908       	93.378494      	93.46925       	93.44632       	94.45523       	94.45421       	93.86503       	95.153755      	94.14281       	94.664116      	95.41888       	94.15817       	95.01602       	94.747635      	95.1493        	94.30131       	93.681854      	94.309845      	92.79179       	94.00898       	93.3525        	93.26927       	95.763794      	92.26655       	95.04454       	94.55706       	93.80367       	95.49029       	92.1617        	94.7347        	93.76208       	91.3872        	94.4498        	92.66916       	93.619255      	93.3614        	94.0752        	93.49511       	93.73848       	94.47096       	94.06792       	93.56503       	
93.61368       	93.88473       	92.261055      	92.39298       	91.462944      	91.72597       	92.14499       	91.90315       	93.24037       	91.71118       	92.77365       	91.53362       	91.77174       	92.13471       	90.84097       	93.07756       	90.32584       	91.63112       	92.836685      	91.378         	92.763054      	91.75204       	91.94563       	91.87207       	91.36564       	91.71785       	89.80488       	91.283005      	90.121056      	91.48449       	90.22389       	90.43291       	91.99804       	90.78315       	92.09879       	92.62379       	91.36259       	92.05779       	92.50783       	92.85006       	92.01071       	93.38237       	93.895454      	92.06859       	94.169304      	91.08446       	93.93839       	94.62346       	92.95921       	95.10497       	93.94779       	94.48481       	95.024284      	93.1639        	96.359146      	94.612755      	93.154015      	95.19385       	93.90827       	94.25496       	93.46245       	94.5096        	93.58273       	95.60046       	93.39857       	95.02099       	95.62743       	92.845406      	95.79691       	96.590164      	93.12397       	96.97698       	94.31995       	95.554985      	95.86974       	93.626015      	94.55101       	94.425         	94.430824      	95.18462       	94.85031       	94.51811       	93.9333        	95.31056       	94.20426       	93.56685       	94.62851       	93.48263       	93.77296       	93.88496       	93.578476      	94.524155      	93.63965       	94.22217       	94.55346       	93.77438       	94.13319       	94.10827       	94.65742       	94.2991        	
93.08416       	92.41633       	92.409454      	92.683945      	92.278725      	91.58205       	93.22187       	92.01681       	92.30806       	92.41734       	92.9549        	93.57066       	92.23676       	92.099434      	92.52226       	91.81543       	92.07453       	91.77389       	92.16118       	91.14108       	92.23682       	91.91441       	91.02658       	92.9051        	91.07757       	90.93334       	92.92236       	90.777695      	92.191536      	91.41318       	92.618774      	91.687836      	91.99184       	92.21154       	91.55828       	92.769295      	91.20668       	92.25418       	92.511665      	90.97079       	94.357414      	91.76322       	92.83823       	93.6352        	92.60796       	93.795456      	92.84115       	93.104645      	93.37122       	93.65665       	94.02495       	93.2357        	94.746574      	94.070404      	93.86949       	95.4401        	92.43962       	94.9718        	93.7583        	94.26184       	94.30217       	93.63469       	94.28911       	94.192245      	94.77787       	93.58814       	95.60792       	95.507645      	94.221146      	95.1764        	94.555595      	95.1175        	95.39473       	94.5289        	95.24389       	94.75447       	95.80136       	94.0199        	94.14188       	95.74716       	93.46544       	94.710846      	93.00817       	91.55916       	94.10413       	91.08366       	94.27559       	93.313805      	93.93177       	94.603546      	93.66537       	93.39725       	94.32161       	93.4377        	93.57438       	93.489395      	92.62363       	93.86309       	93.810455      	92.79518       	
93.31355       	92.51193       	92.94209       	92.4351        	91.92939       	93.11675       	92.591705      	91.995514      	92.73256       	90.92925       	93.15218       	91.757774      	92.74985       	92.846176      	92.401825      	92.832016      	92.06473       	92.37794       	91.97567       	91.69369       	91.72558       	92.300385      	92.38243       	91.433716      	92.70368       	91.404594      	90.36947       	92.35977       	90.61328       	92.693         	91.741974      	92.02311       	92.42627       	90.75305       	92.29032       	91.92118       	91.55922       	92.27908       	91.34172       	92.592         	91.6455        	92.058136      	92.891106      	91.78378       	93.08749       	92.36796       	91.26469       	93.20592       	92.54858       	93.22942       	93.44388       	93.42688       	93.54404       	93.490425      	94.26542       	93.59074       	93.28221       	93.94078       	92.97592       	93.17606       	94.55469       	93.72413       	94.81954       	94.04152       	94.68248       	94.45201       	94.773125      	94.42226       	94.69066       	94.775505      	95.81548       	94.36508       	93.971         	95.213455      	93.664536      	95.51573       	95.34346       	93.323006      	95.56457       	94.29911       	95.37316       	95.058174      	92.80659       	94.56744       	93.53024       	92.30298       	94.07807       	92.73828       	93.547226      	93.56249       	94.29265       	93.33542       	93.526535      	93.67737       	92.632866      	92.919235      	93.09189       	93.18042       	92.94372       	93.93028       	
92.80183       	91.86614       	91.2129        	91.43193       	91.20369       	92.69812       	92.37193       	91.03246       	93.45528       	92.260956      	91.496185      	93.47466       	92.45634       	92.62701       	90.97351       	92.74398       	91.49882       	91.85441       	92.26493       	91.94943       	92.05498       	91.6231        	92.01029       	90.94967       	90.83324       	91.66358       	90.953         	91.78406       	91.39806       	91.94276       	91.7868        	92.42114       	92.354385      	91.93187       	92.26309       	91.5689        	92.49634       	92.935425      	92.33681       	92.88424       	93.30254       	93.1328        	92.99023       	94.01522       	92.57458       	93.00477       	93.844536      	93.15597       	94.01571       	93.56609       	93.879654      	94.22496       	94.52759       	93.572174      	93.58626       	94.79186       	93.97609       	94.95239       	94.89493       	93.58598       	95.44383       	94.763954      	94.85718       	95.02629       	95.916794      	95.21289       	94.58556       	95.4081        	94.74028       	94.84234       	95.43025       	95.414024      	93.94368       	95.65567       	96.29079       	94.12785       	95.305016      	94.54163       	94.18897       	94.67335       	94.9691        	94.78787       	94.66817       	95.79384       	95.44026       	94.42225       	94.47075       	93.57301       	95.05992       	94.96224       	95.47444       	94.98406       	94.89898       	94.49191       	93.95592       	94.66524       	94.33874       	94.75377       	94.24925       	94.04435       	
92.51063       	91.92193       	91.126434      	92.07043       	92.48519       	91.00511       	93.219925      	92.49093       	91.167755      	93.54691       	91.49931       	92.54435       	92.31672       	91.98148       	91.62191       	91.94212       	91.65067       	91.2583        	92.784225      	91.481064      	91.22814       	91.475136      	90.78826       	92.179756      	90.44701       	91.986084      	92.85513       	91.04042       	92.08886       	91.615234      	91.633224      	91.25577       	91.96655       	92.327866      	91.05788       	92.6266        	90.81109       	92.37369       	92.03901       	91.32338       	92.39493       	91.51278       	92.40579       	92.92435       	93.15811       	93.02336       	93.13091       	93.793015      	92.7362        	93.30884       	92.88411       	92.71396       	94.335075      	92.91993       	93.5405        	93.85241       	92.97724       	93.51303       	94.11807       	93.66867       	93.83134       	94.09311       	93.868515      	94.49731       	94.666595      	92.93011       	95.774574      	94.04512       	92.78128       	94.9521        	94.24535       	93.340385      	95.28273       	95.13135       	94.55139       	95.761246      	94.45569       	94.85328       	93.654755      	94.85416       	93.79815       	94.99151       	94.63262       	92.70867       	94.530594      	94.206825      	94.538536      	95.06469       	93.37092       	94.739746      	94.22079       	93.64179       	94.46375       	93.77095       	94.23597       	94.44549       	93.26431       	93.75676       	93.72724       	93.3676        	
93.27453       	91.52673       	91.601944      	91.74291       	91.32588       	92.08411       	91.48124       	92.24693       	91.87149       	92.648384      	92.32547       	91.60668       	92.60034       	90.99292       	91.86439       	91.715935      	90.888596      	93.10054       	91.60444       	91.94064       	91.9107        	91.827866      	92.28442       	91.25086       	92.552765      	91.6259        	90.96855       	91.93715       	90.885376      	91.699104      	91.88658       	91.16252       	92.69107       	91.32275       	91.61425       	91.928635      	91.96381       	92.21036       	93.17294       	92.56208       	92.74543       	93.80822       	92.83021       	94.17531       	93.10605       	93.14397       	94.000885      	94.19671       	93.86783       	93.57516       	94.18542       	93.10926       	94.21254       	94.328316      	93.0016        	94.560005      	93.50455       	94.91203       	94.69952       	93.71642       	95.12633       	94.94629       	94.08011       	94.90922       	93.76275       	93.859604      	94.34262       	93.80168       	93.21243       	94.44193       	94.12462       	92.83821       	94.63244       	94.19097       	93.32533       	95.53828       	93.9582        	93.19969       	94.81507       	94.25522       	94.7264        	94.19247       	93.71326       	94.01734       	94.7742        	93.89779       	93.1162        	94.297005      	92.42765       	93.67409       	94.12377       	92.37277       	92.018394      	94.54815       	92.44843       	93.77946       	94.16178       	92.782455      	92.799164      	93.484245      	
90.66727       	92.04887       	92.1575        	92.155304      	92.35699       	91.965294      	91.95997       	92.60097       	92.269585      	92.57509       	92.89335       	90.84587       	92.18354       	91.87914       	90.60008       	93.013916      	90.96852       	91.03723       	92.99938       	90.40382       	91.72877       	91.27286       	90.50286       	92.01726       	92.32597       	90.5723        	92.85025       	92.21469       	92.17982       	93.59837       	92.79748       	93.37486       	93.197426      	92.55306       	92.565865      	92.54052       	92.968376      	93.39601       	93.15595       	92.74459       	93.96015       	92.13639       	93.96152       	92.37045       	92.733955      	93.9928        	92.83554       	93.02404       	93.90585       	93.46536       	93.75074       	94.07183       	93.77534       	93.99284       	94.117386      	94.019165      	93.982735      	94.38409       	93.62248       	95.21118       	95.23934       	92.82136       	95.361946      	93.39409       	95.21552       	95.16904       	93.70628       	95.919914      	94.23915       	93.77831       	95.66263       	95.049545      	93.55139       	95.97957       	95.5596        	94.36616       	96.229195      	94.189156      	93.11718       	94.93108       	94.25872       	94.95382       	94.26498       	94.17864       	93.79713       	94.53728       	95.83606       	93.43887       	94.89014       	94.36849       	92.33177       	94.53887       	93.86877       	94.17521       	94.419975      	92.5761        	93.29597       	93.76757       	93.20422       	93.11227       	
90.7166        	91.366936      	92.867584      	92.594185      	91.52165       	91.343796      	91.637566      	93.71082       	91.46065       	91.62012       	92.567         	91.78619       	91.86989       	92.75948       	91.898346      	90.9182        	92.26034       	91.77492       	90.53031       	92.4746        	91.55563       	90.706635      	91.438354      	89.74516       	91.00505       	92.092606      	90.91877       	91.22531       	92.43311       	91.45055       	92.87291       	92.19884       	91.63065       	92.43804       	92.266525      	92.32991       	92.652306      	92.638725      	92.5133        	93.38566       	92.66136       	93.56845       	92.93712       	92.51725       	94.297554      	92.59532       	93.77043       	92.328384      	93.46298       	94.04595       	94.63895       	94.42687       	93.211174      	94.988396      	92.37648       	92.34614       	94.2957        	91.87039       	95.23731       	92.27988       	94.124214      	94.4641        	92.98509       	93.926025      	93.09843       	95.56093       	92.60763       	94.411446      	93.806526      	93.31017       	95.00434       	92.67358       	92.573555      	94.560905      	93.70489       	92.4511        	94.87556       	93.36508       	93.394936      	94.00505       	93.36304       	93.84872       	93.53621       	93.98448       	93.32807       	93.849724      	93.04719       	92.21431       	94.17552       	92.844765      	91.30123       	92.659065      	91.90638       	92.87427       	93.415535      	92.74489       	94.31231       	94.23874       	92.719894      	92.955635      	
91.4235        	90.701584      	92.08293       	91.48756       	90.17445       	90.65881       	91.45987       	91.254524      	92.09053       	91.60252       	91.97656       	91.71229       	92.387955      	91.11529       	92.14808       	91.82024       	90.4132        	90.787285      	91.193115      	90.46529       	92.11756       	91.15823       	92.245186      	91.491486      	90.620964      	91.83487       	91.19776       	92.896515      	91.96135       	93.034065      	92.24781       	91.71099       	92.77233       	92.67323       	92.07411       	93.25769       	92.962975      	93.00685       	92.746376      	92.84661       	92.57989       	93.52088       	92.90195       	92.90186       	94.091675      	93.18311       	93.437004      	93.99353       	92.90313       	93.23491       	93.88842       	93.56163       	94.03887       	94.401535      	93.84374       	94.70741       	94.672775      	94.52342       	94.49315       	93.95729       	94.27332       	93.38555       	95.1943        	94.674934      	93.80003       	95.208466      	95.63805       	93.90251       	94.76704       	94.744385      	93.71451       	93.92891       	95.14487       	94.46612       	94.43678       	94.9264        	94.881966      	93.93163       	93.89117       	94.20129       	93.808235      	93.34831       	93.36241       	93.783165      	92.07463       	94.13672       	93.12203       	92.22926       	93.26759       	93.84026       	92.2827        	92.92962       	94.182724      	92.447525      	91.76132       	93.20885       	92.68526       	92.09421       	93.3802        	92.40888       	
93.263145      	90.90656       	92.29872       	91.94343       	92.17863       	91.72222       	91.934906      	92.42543       	92.34052       	92.141815      	92.56129       	91.99988       	90.98506       	92.890335      	91.64319       	91.732254      	92.7307        	91.9051        	91.585655      	93.049194      	91.930145      	91.58967       	92.07715       	92.0309        	91.96099       	92.39936       	92.53768       	93.05055       	92.18303       	91.56174       	92.500946      	93.353584      	92.63981       	92.67491       	92.90218       	92.24938       	93.0308        	94.04493       	92.47587       	93.614494      	92.53773       	92.794754      	93.72482       	92.89936       	92.52705       	93.27215       	92.838295      	93.32518       	94.263306      	93.15836       	93.03303       	94.1921        	92.86043       	93.69583       	94.10159       	94.370605      	94.68549       	94.998535      	93.104965      	94.812325      	94.165695      	93.30751       	95.19426       	93.24141       	94.948944      	94.33585       	93.62916       	95.17958       	93.638916      	93.55599       	94.13394       	93.04085       	93.70178       	94.14482       	93.66857       	94.01486       	93.51506       	93.21614       	93.749596      	92.84022       	93.38696       	93.8997        	92.19014       	94.54016       	94.383965      	91.539566      	94.32506       	94.86039       	91.83674       	93.25323       	95.05155       	92.28765       	91.97803       	95.041         	93.543365      	91.38114       	94.039474      	91.8717        	91.559395      	92.08778       	
92.65091       	91.49985       	91.52612       	90.9419        	92.78282       	92.01344       	92.12028       	92.07016       	92.530014      	92.448715      	90.6159        	92.726685      	91.93304       	90.775185      	92.809784      	90.762245      	92.37853       	91.70345       	90.819176      	91.933174      	92.29926       	90.7585        	90.502         	91.16849       	91.213745      	91.13454       	91.19951       	90.95055       	91.28844       	91.715576      	91.341644      	92.48584       	91.847725      	92.44372       	92.64244       	92.479004      	93.73829       	93.00347       	92.66129       	93.64181       	92.98294       	94.2986        	93.15092       	91.79613       	94.91014       	92.763916      	93.01961       	94.18351       	93.42561       	93.57805       	93.81147       	92.9586        	94.30697       	93.71614       	93.966965      	95.15716       	93.74934       	94.01469       	96.39149       	93.304474      	94.55856       	96.230644      	94.15601       	94.59801       	96.7815        	94.91695       	94.16166       	97.12843       	94.584175      	94.30769       	96.67423       	94.591354      	94.297         	95.41788       	94.34522       	94.576485      	95.299446      	93.617         	94.6904        	95.17488       	92.588745      	94.35329       	95.907845      	93.18895       	93.17113       	94.7023        	93.313545      	93.128006      	94.81465       	94.208466      	93.587685      	94.67925       	93.87098       	94.56836       	94.57543       	93.6475        	94.78879       	94.78397       	93.87192       	93.467545      	
90.13901       	92.18017       	92.54994       	92.163895      	90.17895       	92.73029       	91.576294      	90.81053       	93.35763       	91.39564       	93.34476       	92.640755      	91.13155       	91.71156       	91.34555       	91.63028       	92.59952       	92.02646       	91.99353       	92.27615       	91.15213       	91.248055      	92.26356       	90.78138       	93.06945       	92.58106       	89.267815      	93.931725      	90.48845       	91.06686       	93.263374      	90.81419       	92.736496      	90.899704      	92.86789       	93.04663       	91.90471       	93.79288       	92.340385      	93.00169       	93.8105        	92.57411       	92.88112       	93.43165       	92.91671       	93.64411       	94.5064        	93.57775       	93.0533        	94.24304       	93.76216       	93.76062       	94.88786       	93.62131       	93.551605      	95.43367       	93.5308        	93.483444      	95.25854       	93.59249       	93.52526       	94.91747       	94.271835      	93.62802       	94.49719       	93.47938       	93.8614        	94.88809       	93.69494       	93.45541       	94.69917       	93.85596       	92.69853       	94.74136       	94.65433       	92.87149       	94.274254      	94.48218       	93.73394       	94.94055       	95.544266      	94.83252       	95.03596       	94.82621       	93.99285       	93.8252        	94.174614      	94.73261       	94.12896       	93.71924       	94.04647       	94.53985       	94.18713       	93.692345      	94.177666      	93.59352       	93.6939        	93.25334       	93.67814       	93.733734      	
91.11138       	91.084564      	89.602646      	93.10794       	91.25984       	90.58805       	92.12181       	90.66682       	92.76498       	92.22499       	90.92673       	91.23792       	91.63834       	91.45809       	92.087006      	91.93675       	90.08819       	91.82175       	91.98588       	90.936386      	91.97299       	91.47937       	91.39372       	91.75297       	91.88704       	92.032         	92.70615       	91.21783       	93.432335      	93.45635       	91.49264       	91.70855       	91.75711       	91.52736       	94.302734      	92.29736       	93.602104      	94.85535       	92.90101       	94.08021       	94.26083       	94.03369       	93.58166       	93.870605      	92.409706      	94.26307       	94.75396       	94.30729       	95.49616       	93.88463       	94.91525       	96.59285       	94.11308       	95.37703       	95.321335      	94.21541       	95.531654      	95.16302       	94.06723       	94.75021       	94.76732       	93.98957       	94.568924      	94.93265       	94.39629       	95.07928       	95.29483       	95.072395      	94.73461       	94.591415      	94.08802       	93.83122       	94.282234      	93.67501       	93.85676       	94.19426       	93.41872       	94.469894      	94.55043       	93.75162       	93.28923       	95.26871       	93.57696       	93.20814       	95.65883       	93.9279        	92.121895      	94.91161       	94.10733       	91.685104      	94.80755       	92.830124      	91.95149       	93.035576      	91.78395       	93.170975      	94.310234      	93.76249       	93.90221       	93.36464       	
91.06873       	91.97698       	89.48816       	93.0974        	91.77231       	90.92615       	91.790146      	90.82852       	92.45927       	91.18492       	89.912506      	90.87401       	91.666275      	91.55228       	91.92236       	90.515175      	91.01552       	90.832306      	91.987625      	91.57414       	89.792595      	92.11174       	90.13298       	90.666306      	92.63574       	91.18371       	92.56104       	90.95146       	89.3296        	92.05567       	89.94561       	90.617294      	91.33855       	91.123604      	92.166214      	92.31988       	91.95717       	92.97582       	91.24975       	92.022285      	92.78655       	92.84398       	93.333         	93.2103        	92.70744       	93.77054       	93.77509       	93.13339       	93.64635       	94.00981       	92.930664      	94.41869       	92.65331       	93.51807       	95.27389       	93.012695      	96.015755      	93.930176      	94.09652       	95.56778       	93.25627       	92.78857       	95.98177       	93.46749       	93.76949       	95.23934       	93.42261       	94.35922       	95.14775       	93.51845       	95.2494        	95.13082       	93.386475      	94.03475       	95.43579       	93.95764       	94.19967       	95.00103       	94.48982       	94.437706      	94.7332        	93.846115      	94.720985      	94.07828       	93.966515      	94.51139       	93.7094        	92.84421       	94.944534      	93.93014       	92.10055       	95.53792       	92.96849       	92.74081       	94.565445      	92.86935       	92.409744      	94.458305      	94.84776       	94.55757       	
91.92384       	93.36024       	91.82521       	91.15394       	90.40644       	92.65124       	91.8425        	91.79725       	92.13827       	90.32785       	93.70885       	92.34657       	90.805405      	92.87743       	91.56996       	92.289955      	92.72123       	91.08183       	91.01375       	92.1927        	92.0972        	92.434586      	92.271355      	91.53327       	92.88123       	93.434845      	92.17144       	93.26698       	92.7758        	91.47708       	92.148285      	92.68114       	92.30677       	93.52977       	91.93532       	92.9508        	93.16759       	93.43738       	93.53889       	93.28613       	93.04052       	92.8887        	94.275566      	93.33184       	95.280365      	93.28801       	94.57959       	95.22745       	93.91435       	94.47952       	95.340256      	95.05489       	94.40039       	94.55167       	94.68408       	94.37611       	94.52697       	94.496704      	95.23869       	94.25851       	95.49802       	96.34736       	93.21741       	94.22072       	95.57019       	93.85917       	93.320274      	95.527794      	94.17516       	92.4273        	94.943115      	94.060104      	93.53144       	93.85639       	94.75908       	94.1407        	93.73534       	95.12767       	94.0896        	93.271         	93.6967        	93.89731       	93.10791       	93.53012       	94.55761       	93.83395       	92.461655      	94.03358       	94.02974       	92.188         	93.53748       	93.976814      	92.67073       	94.073784      	93.40016       	92.6825        	92.98502       	93.548676      	93.93135       	93.67325       	
89.206024      	91.51352       	92.11164       	89.22848       	89.32482       	91.20996       	91.30876       	91.582954      	90.60648       	89.21386       	91.57926       	91.58321       	91.541794      	91.13801       	90.52918       	91.015396      	92.19223       	91.20047       	89.47142       	90.65385       	89.8769        	91.41545       	92.32903       	91.95257       	92.57509       	91.720535      	90.20588       	92.42268       	91.57405       	90.936005      	92.52785       	92.083244      	92.86331       	93.30599       	92.247246      	93.76392       	92.16975       	93.071884      	93.41987       	93.00509       	93.10937       	93.68382       	92.68195       	95.105156      	93.830795      	93.78565       	95.10067       	94.31597       	94.04073       	94.41517       	95.3018        	94.10314       	93.912315      	95.2426        	94.20173       	93.977486      	95.49494       	93.928986      	94.99019       	95.27265       	93.90062       	94.00339       	94.72411       	94.61525       	93.25483       	94.27216       	94.94291       	93.86113       	93.29918       	94.83941       	94.53328       	93.69577       	94.331245      	94.592255      	93.70806       	93.52779       	94.46627       	93.21697       	93.42427       	94.4058        	92.86736       	94.017365      	94.596405      	93.93072       	93.35265       	94.664986      	91.95621       	93.42396       	93.54914       	92.03133       	93.57016       	93.905045      	93.01995       	92.91968       	93.90569       	92.97371       	92.866585      	92.7191        	92.41435       	92.85515       	
87.862946      	91.06889       	91.48337       	89.33285       	88.66469       	90.93298       	91.602104      	92.080246      	91.236565      	88.89133       	91.6974        	90.64345       	91.77691       	91.54713       	89.156784      	91.91292       	90.29859       	90.02621       	91.096016      	90.362885      	91.7517        	91.73258       	91.62646       	90.594635      	92.96611       	92.0199        	91.03544       	93.208725      	92.694466      	92.5985        	91.565384      	93.007126      	92.54302       	92.19544       	93.05002       	92.2138        	91.93382       	93.35327       	92.383804      	92.9506        	93.1243        	92.847244      	93.73504       	92.84767       	94.17375       	93.83546       	94.08361       	94.44841       	94.02515       	94.22238       	93.68099       	94.66755       	94.56087       	93.35252       	94.73478       	94.408745      	93.69461       	95.07018       	94.967636      	94.15145       	95.808235      	95.81365       	93.89098       	95.18717       	95.21854       	94.13074       	94.05633       	95.15088       	94.19225       	93.819046      	94.988754      	94.132774      	94.43263       	94.81297       	93.87946       	95.13363       	94.20143       	93.201065      	95.535965      	94.75851       	93.98681       	95.43068       	94.78417       	94.07446       	94.34819       	93.97321       	95.09531       	92.299385      	94.587944      	94.17293       	92.11234       	93.697136      	95.002655      	92.40486       	92.97035       	94.553085      	93.087845      	91.938705      	92.152214      	93.1878        	
92.29443       	89.58343       	89.70191       	89.96922       	92.32402       	91.796104      	91.00168       	90.17627       	92.39327       	92.227165      	90.93437       	91.15515       	90.76995       	89.104706      	92.1962        	91.21371       	90.85231       	91.11024       	89.80729       	91.7419        	92.1659        	91.44381       	91.041176      	93.05101       	92.27306       	91.83048       	91.87943       	91.53029       	93.177734      	92.9637        	91.7538        	90.44597       	92.723625      	91.99578       	92.22534       	93.05579       	92.90104       	92.34927       	93.33165       	92.811455      	93.29118       	94.32883       	92.57415       	94.19046       	95.32243       	92.67892       	93.63493       	96.03387       	93.63789       	93.563965      	95.996994      	94.09736       	93.17208       	95.69432       	94.30811       	94.24008       	95.642624      	94.07389       	94.41277       	94.60067       	93.512955      	94.74751       	94.3155        	93.000534      	95.27591       	95.7269        	92.53531       	95.4362        	96.126114      	93.36779       	94.07474       	96.091545      	93.01062       	93.61581       	95.74659       	93.77042       	93.31713       	95.061554      	95.013725      	92.99492       	95.03758       	94.077515      	93.6762        	95.00143       	93.89977       	93.64906       	94.536545      	94.07482       	93.28273       	94.66646       	94.035904      	93.76921       	93.45191       	94.36358       	93.71158       	93.16881       	94.46722       	94.81861       	94.302666      	93.64269       	
90.59237       	87.36651       	93.962166      	90.02894       	90.544716      	91.82727       	92.90092       	92.98869       	90.78227       	90.59544       	91.23494       	89.554924      	92.62477       	91.25195       	91.302475      	91.18065       	90.48247       	91.49383       	92.09022       	91.85969       	90.68788       	92.66125       	91.881874      	91.25887       	92.79648       	91.92013       	93.56843       	93.81319       	90.73516       	90.62407       	92.60683       	91.58918       	93.42277       	92.12149       	93.44551       	93.002716      	93.086006      	93.08237       	92.16492       	94.06967       	93.705246      	94.30505       	93.35254       	94.46913       	94.02544       	94.27232       	94.518196      	93.51607       	95.52597       	94.83784       	93.23279       	94.93037       	93.97248       	94.16747       	94.989975      	94.95804       	95.08564       	94.41569       	95.03435       	95.0008        	93.83823       	95.34976       	95.41853       	94.02877       	95.254036      	95.71414       	94.03177       	94.61994       	95.632034      	94.21306       	94.67709       	95.280304      	94.0577        	94.44595       	94.42482       	94.94942       	94.88233       	94.6043        	93.49505       	95.257904      	95.579765      	93.725266      	94.71533       	95.085625      	93.28189       	95.82634       	94.666016      	94.33601       	96.04914       	94.741905      	93.8357        	95.3289        	94.410385      	93.82858       	94.64003       	93.3686        	92.72358       	94.510895      	94.26083       	93.2602        	
91.478195      	90.75455       	90.78488       	88.1913        	92.500244      	91.62135       	90.26865       	90.19298       	89.490524      	92.22579       	91.856125      	90.97889       	90.31637       	89.25431       	89.90013       	90.940254      	92.08491       	91.655815      	89.55392       	89.81593       	91.05054       	91.26368       	92.51628       	90.57775       	89.36511       	92.528366      	90.76547       	92.20496       	92.228676      	93.6689        	94.17528       	91.935104      	90.27825       	93.197464      	92.498405      	92.742744      	93.165855      	92.25693       	92.87081       	93.00249       	92.42235       	93.06731       	93.18244       	94.68063       	93.71028       	93.59266       	94.455154      	93.7581        	93.89637       	94.643974      	93.94613       	94.7769        	92.815315      	94.732666      	95.23299       	92.85513       	95.230995      	94.86178       	93.835335      	94.545334      	95.13924       	94.703995      	93.96774       	95.43078       	94.30317       	94.60271       	94.9904        	93.93338       	94.781235      	94.887535      	93.52666       	95.185104      	95.574005      	93.360504      	94.79765       	95.7296        	93.022385      	93.359566      	95.49707       	93.08907       	94.11652       	95.12669       	93.02385       	95.07991       	94.84489       	93.009995      	94.39979       	93.87992       	93.70509       	94.39668       	93.54235       	94.62474       	93.82545       	93.32342       	95.018715      	95.04532       	93.001945      	93.750725      	94.28453       	95.04386       	
91.29082       	89.708405      	90.24484       	88.24231       	93.491165      	89.97154       	89.076225      	90.98787       	89.65263       	92.97352       	92.54711       	89.372314      	90.23326       	89.74829       	91.39025       	91.85843       	90.84278       	89.89034       	90.48734       	89.33821       	91.71895       	92.44621       	91.634575      	90.725945      	91.015305      	92.1058        	91.62809       	92.31757       	91.46486       	92.93769       	93.65308       	92.676254      	91.109055      	94.29569       	91.95258       	91.731735      	93.1127        	92.53969       	93.729485      	93.34757       	92.57976       	93.48181       	92.35053       	92.04494       	94.549934      	93.201935      	94.982635      	93.75611       	93.3306        	94.74306       	94.0284        	93.627884      	94.406494      	93.87052       	94.27876       	95.16008       	93.26262       	93.82667       	94.696014      	93.6998        	94.29317       	95.34099       	94.31224       	93.94759       	95.13608       	94.20452       	93.3051        	95.269684      	94.48548       	93.11421       	94.40365       	95.06779       	93.438965      	93.61979       	95.4926        	92.847626      	93.46589       	94.38378       	93.4878        	93.29432       	94.15937       	93.3918        	92.99606       	94.18389       	95.02414       	92.94405       	93.31166       	94.71132       	93.762215      	92.83062       	93.95938       	94.3133        	92.18054       	94.599556      	93.44005       	91.14454       	93.65672       	94.06503       	93.019684      	92.26563       	
92.06001       	92.38301       	90.34223       	90.49185       	90.60898       	87.711685      	91.40611       	91.105835      	91.21643       	89.37187       	88.94914       	90.50521       	91.60416       	93.332535      	90.215744      	88.38316       	90.96829       	91.307915      	93.34607       	90.8941        	88.94598       	90.374115      	90.95905       	92.739624      	91.76342       	89.40158       	92.826035      	92.103226      	91.09333       	92.539536      	92.61398       	92.80551       	93.05087       	91.643425      	93.67089       	93.33785       	93.21904       	91.51466       	91.64127       	92.8324        	92.81096       	93.28273       	92.29728       	94.68701       	92.900055      	94.01754       	94.94504       	93.39777       	94.49899       	94.42594       	94.82457       	94.269585      	94.35281       	94.60027       	93.697296      	94.87926       	92.993095      	94.89025       	94.0298        	92.250656      	94.929565      	92.833855      	93.415474      	96.06152       	93.613365      	93.06611       	95.551445      	94.50737       	93.3931        	94.65225       	94.88071       	93.251915      	94.19101       	94.79912       	93.66723       	94.17379       	93.95544       	94.61414       	93.345184      	93.280846      	94.186516      	93.66923       	92.555824      	94.104095      	94.46464       	92.663155      	94.60448       	94.59544       	92.59378       	94.54627       	94.32968       	92.62626       	94.57343       	94.26086       	92.757904      	94.77352       	94.86084       	94.117905      	93.45241       	94.069244      	
89.932144      	92.18413       	90.40479       	90.52565       	89.68913       	92.558334      	92.47447       	91.50146       	90.00878       	90.382286      	91.66281       	92.92342       	91.36292       	90.094475      	89.75309       	89.60751       	92.00823       	92.52982       	91.91511       	90.5258        	89.64523       	90.20966       	91.58314       	93.23656       	91.14828       	90.53533       	91.182495      	92.12453       	93.03034       	92.15658       	90.80746       	93.11388       	92.59996       	92.40157       	91.089035      	93.43187       	92.281425      	92.584946      	93.10253       	92.529526      	94.190956      	93.107574      	93.57226       	93.683586      	93.850464      	94.69493       	93.56491       	94.04891       	93.93614       	94.13464       	94.28814       	92.71722       	95.47731       	93.71155       	95.14331       	95.68922       	92.63445       	95.1387        	93.66817       	94.607834      	94.585655      	92.48093       	94.605156      	93.900215      	93.47602       	93.35693       	93.99955       	94.12874       	94.16295       	94.800575      	95.180954      	94.40893       	93.8994        	94.57305       	94.31193       	92.977585      	95.016716      	94.09975       	92.43312       	93.987564      	94.741264      	92.4944        	92.721756      	94.63949       	92.748665      	92.93583       	94.57441       	93.39509       	93.912766      	94.066895      	93.70265       	94.17687       	94.41792       	93.61006       	94.2642        	94.058525      	91.83215       	93.119354      	94.33162       	94.70756       	
91.63485       	89.5894        	89.687325      	91.804855      	91.785324      	89.78324       	88.58587       	92.51782       	90.56754       	91.18727       	90.9493        	88.31075       	91.95861       	90.934814      	90.66285       	91.72518       	89.94494       	88.51006       	92.017204      	92.00577       	91.741295      	90.64802       	90.523224      	92.506996      	93.45968       	92.12312       	90.407074      	91.76905       	91.395294      	93.3133        	94.06102       	90.99919       	94.50235       	92.69101       	92.265945      	92.94864       	92.85259       	93.904335      	94.6973        	93.91981       	95.461716      	94.70825       	93.60425       	96.078735      	94.78041       	95.578865      	94.705605      	95.766235      	94.350845      	95.23994       	96.318535      	94.80626       	97.34575       	93.29858       	94.19626       	94.278595      	93.28488       	97.294815      	93.733696      	96.59195       	95.54542       	93.72877       	95.68602       	95.61891       	94.33484       	95.02474       	95.29503       	93.98943       	95.243126      	94.212006      	94.33282       	95.03125       	92.96642       	94.159294      	95.81894       	93.82702       	93.477974      	94.41581       	94.089226      	93.40922       	93.62057       	93.42276       	93.792534      	93.22969       	92.9622        	93.986664      	92.770996      	92.13936       	93.521286      	92.82349       	92.78633       	93.40838       	92.8091        	93.12188       	93.51643       	93.53329       	92.7181        	93.30711       	93.682045      	93.48371       	
87.70897       	91.11812       	88.88255       	86.945305      	91.756645      	90.564835      	90.64882       	90.47119       	87.90531       	88.2414        	91.28016       	90.71322       	91.36911       	89.94121       	88.24776       	90.9742        	91.65804       	90.5617        	89.97362       	89.661514      	92.17655       	92.44128       	90.94931       	89.0157        	91.321976      	90.82984       	92.66207       	91.84832       	89.593994      	90.02003       	92.16096       	91.576416      	91.07167       	90.2666        	92.10009       	91.24617       	91.047676      	91.03198       	91.59229       	92.885864      	91.77306       	93.138824      	93.88402       	92.593735      	93.70409       	93.373116      	92.28777       	94.10261       	93.55005       	92.592476      	93.851845      	92.8221        	93.186165      	92.96066       	92.81539       	92.34544       	92.202156      	92.184494      	93.50334       	93.94447       	91.51835       	92.97233       	94.508995      	91.88197       	93.72963       	94.27503       	92.534355      	93.788124      	93.28581       	93.0644        	93.33878       	93.01368       	92.92391       	93.020454      	92.99084       	93.132935      	91.177574      	92.7942        	92.95015       	91.425995      	92.44013       	92.98223       	91.34376       	91.879486      	93.97725       	92.03757       	90.97641       	94.04764       	92.15274       	92.38904       	93.52767       	91.007805      	91.72492       	93.86046       	90.99357       	92.58162       	93.63069       	92.082634      	91.90762       	92.1978        	
92.186295      	87.453384      	87.54069       	90.20954       	91.83012       	91.50655       	87.52833       	87.49893       	88.03757       	91.346794      	91.65817       	88.91119       	88.63614       	88.60742       	91.19275       	90.20011       	88.172035      	90.42745       	89.17437       	86.334946      	91.11372       	88.55969       	90.31556       	91.46928       	87.27929       	92.59184       	90.02348       	89.988686      	91.41381       	92.44239       	93.13758       	91.61705       	90.788506      	91.90872       	91.78433       	93.13626       	91.35637       	89.445244      	93.51258       	91.318436      	92.30641       	92.23607       	92.93864       	92.808876      	92.94337       	93.7045        	93.907745      	94.25282       	93.65734       	94.296715      	94.45015       	92.40929       	94.679985      	93.876396      	94.184456      	94.982124      	92.49278       	94.930084      	94.20977       	93.63884       	94.48958       	93.59258       	94.763016      	94.81821       	94.7236        	94.70628       	94.8154        	94.39331       	93.97641       	94.60475       	94.419716      	93.29399       	94.23332       	94.64998       	92.29769       	93.29357       	95.09352       	93.76208       	92.88457       	95.024055      	93.3825        	93.10555       	95.49828       	93.823616      	92.7095        	95.12303       	94.120804      	93.46026       	94.733795      	94.254875      	93.77465       	93.71944       	93.083046      	94.201706      	93.86946       	93.41115       	93.90294       	94.49578       	94.65813       	94.77217       	
92.9954        	89.523895      	89.15063       	93.11461       	92.17567       	89.39537       	89.49231       	88.89543       	91.8247        	91.51741       	91.2679        	90.30079       	88.663345      	88.07774       	90.520424      	92.2668        	92.439865      	89.106674      	89.75689       	91.11195       	91.818726      	93.12166       	90.24608       	88.5767        	91.51991       	91.38803       	94.95582       	92.65569       	90.10706       	93.414665      	91.547844      	92.33922       	93.218704      	94.426994      	94.849495      	93.35291       	92.83145       	92.4909        	94.07072       	93.75305       	93.91257       	93.77563       	94.99112       	93.11695       	95.92664       	93.93775       	93.83455       	96.0171        	93.76137       	93.988495      	95.689545      	93.25524       	95.85829       	94.69828       	92.42293       	94.90914       	93.326004      	95.013466      	94.320816      	93.9473        	94.718124      	94.00208       	95.20133       	94.07362       	95.10108       	94.97827       	93.65527       	95.64239       	94.85523       	94.29662       	95.94719       	94.13128       	94.249306      	94.864265      	93.98804       	93.73676       	94.41216       	94.093414      	94.22844       	94.25569       	93.42709       	93.97411       	93.552414      	93.592445      	94.66104       	93.61198       	92.645355      	94.11946       	92.55177       	94.18366       	93.73798       	92.83717       	94.34648       	93.856766      	93.49235       	94.20097       	94.00594       	94.12367       	94.185905      	94.26209       	
93.07727       	88.99182       	90.139534      	93.01214       	92.58548       	90.0717        	91.34282       	91.19581       	95.72615       	95.3975        	89.829025      	91.24268       	93.25249       	87.93111       	94.89082       	90.49068       	90.55516       	92.113205      	88.32681       	93.890335      	90.73475       	91.045296      	92.15779       	89.59009       	92.55962       	91.87047       	90.64184       	91.594444      	90.18579       	91.949615      	91.16383       	92.19731       	91.65486       	93.83212       	93.71156       	90.83336       	90.9652        	92.583244      	91.557045      	94.99428       	92.726036      	94.398         	95.57564       	95.33145       	97.09052       	93.284065      	95.505905      	92.76258       	94.51324       	95.14308       	92.65874       	95.809845      	93.03373       	94.13848       	93.56696       	94.4427        	93.52967       	93.67443       	93.40722       	93.27011       	94.81865       	92.77052       	96.19465       	93.83366       	93.24283       	95.74184       	94.04851       	94.037186      	95.16365       	92.645615      	93.87892       	94.32415       	92.35805       	93.98569       	93.628265      	92.78664       	93.423775      	92.688736      	92.06458       	93.41125       	92.533844      	93.36679       	91.95759       	92.64671       	93.3746        	91.26408       	93.88256       	93.2481        	92.08866       	93.873726      	92.079254      	91.868744      	93.324425      	92.017746      	92.90099       	93.59801       	92.669525      	92.72316       	92.916214      	92.982834      	
90.71875       	92.42277       	90.669846      	91.59028       	90.79035       	88.345024      	92.56053       	90.262054      	90.38094       	90.52992       	88.24769       	92.114395      	91.30965       	91.270035      	90.696075      	88.94014       	91.378784      	92.075554      	91.80269       	91.434204      	90.285995      	90.60914       	92.215775      	93.2854        	93.43782       	91.03695       	94.316216      	93.63185       	93.613525      	93.73885       	92.044106      	95.23229       	94.854095      	93.37196       	92.94545       	93.844185      	94.15471       	95.05916       	94.1738        	95.11064       	94.948166      	94.82162       	92.918045      	95.8791        	93.717766      	96.04878       	95.75286       	94.13496       	96.89002       	94.4312        	96.01613       	95.71591       	94.60498       	95.65805       	94.90252       	95.11931       	95.35571       	95.755295      	95.33988       	94.381386      	95.91928       	94.842354      	96.09115       	95.1333        	94.19957       	95.50542       	94.628105      	94.28244       	95.18529       	93.41824       	94.26653       	94.82746       	94.0107        	95.077835      	94.69028       	95.46597       	94.566986      	95.01508       	95.99536       	93.90426       	96.27357       	94.524124      	94.72029       	94.80623       	94.11983       	94.63981       	93.32059       	95.49308       	93.85627       	94.42864       	95.84103       	92.34077       	94.73858       	95.144135      	93.544304      	95.776115      	96.805504      	95.34112       	93.661674      	95.68816       	
90.55146       	91.51518       	91.14246       	89.21988       	88.73665       	88.2597        	90.37159       	90.76074       	91.25668       	87.65036       	91.11616       	89.49202       	89.6808        	90.502754      	88.63399       	93.317245      	91.50479       	89.77221       	91.65404       	90.10106       	87.94804       	91.41405       	89.8361        	90.943756      	89.99137       	88.68294       	92.17388       	92.37385       	90.860405      	90.365585      	90.902504      	92.061226      	92.98771       	92.79626       	89.95996       	93.41676       	91.788666      	91.859955      	92.6115        	92.37151       	92.89499       	92.87299       	93.49528       	93.56657       	93.79208       	93.44914       	93.80541       	93.79549       	92.8785        	93.72629       	93.00959       	94.713905      	93.339096      	93.58028       	94.37221       	93.47454       	94.036446      	94.453545      	93.08681       	92.96739       	93.50202       	92.95398       	95.17948       	92.94754       	93.689804      	94.896904      	92.3127        	92.97277       	94.550385      	91.5703        	94.66687       	94.11806       	90.90413       	95.31581       	92.62541       	93.97519       	93.42937       	92.547195      	93.915245      	91.88416       	93.32113       	93.01032       	93.375946      	94.34933       	93.09673       	93.411026      	93.775604      	91.77143       	93.013374      	94.67505       	91.314644      	93.40909       	94.985565      	91.90101       	94.59175       	94.73526       	93.0711        	94.22165       	94.98827       	94.61982       	
90.88778       	91.10883       	92.766235      	92.16822       	88.488846      	88.21659       	90.123375      	91.14037       	91.54936       	88.96769       	87.601944      	90.86987       	89.92582       	90.63171       	89.67477       	88.22608       	92.00996       	91.7378        	90.41264       	90.29765       	90.468155      	91.56513       	93.13801       	90.11097       	89.55261       	91.20309       	91.58581       	93.313774      	92.07445       	90.452225      	90.64233       	93.52645       	92.520256      	92.470345      	91.63553       	94.18198       	94.12015       	91.530075      	90.89197       	93.548225      	92.75064       	94.08247       	92.680046      	93.65712       	94.35498       	94.29469       	95.256096      	93.38683       	95.55641       	93.22002       	93.73396       	92.99306       	93.50688       	95.45965       	92.37576       	93.92441       	94.8946        	92.2503        	95.4922        	93.047485      	95.184654      	95.10115       	93.432014      	96.11801       	94.06021       	94.90797       	95.04325       	93.963295      	94.27531       	93.525345      	94.33605       	94.227104      	94.61792       	94.41303       	93.34741       	94.18713       	94.73453       	93.00872       	95.25811       	93.95588       	95.45177       	95.233345      	92.78288       	94.77453       	93.28899       	93.18941       	95.09776       	93.05945       	93.3722        	94.8496        	93.28369       	93.66528       	93.59112       	93.36329       	93.43811       	94.08749       	95.122246      	95.20442       	94.53969       	93.72236       	
91.91149       	92.18763       	90.61412       	88.694466      	93.24952       	90.50529       	90.59448       	90.232834      	91.71422       	92.26071       	90.88461       	88.90433       	89.44709       	91.17797       	91.451096      	92.017876      	89.86157       	89.07011       	92.348755      	91.054474      	92.24585       	92.34946       	89.09178       	94.30111       	92.3579        	91.99585       	93.019035      	91.30602       	94.21468       	93.3578        	91.78797       	91.9107        	91.245834      	92.96615       	92.514496      	91.89225       	91.35053       	94.18948       	93.30187       	92.82553       	92.92469       	94.1162        	94.366974      	94.84281       	93.96801       	94.704315      	94.21492       	94.592094      	94.918625      	95.058395      	94.93501       	93.78179       	95.07176       	94.20638       	95.007195      	94.70731       	94.97387       	96.15201       	94.780624      	94.89499       	95.74597       	94.01582       	95.79721       	94.5931        	93.749176      	95.135826      	93.09916       	92.63363       	94.33916       	93.22249       	92.552376      	93.92003       	94.011475      	94.14261       	94.74849       	93.91711       	94.809235      	94.88892       	92.531494      	94.93806       	93.64665       	91.423744      	94.36016       	92.87627       	94.22322       	92.749504      	92.1606        	95.12003       	92.11663       	91.7328        	94.39503       	92.610756      	92.510025      	94.020195      	92.56646       	92.56689       	93.475426      	92.79894       	93.55705       	93.52784       	
92.125         	92.88664       	90.32869       	89.83177       	90.954185      	90.81059       	91.51143       	90.8095        	89.78018       	89.22624       	91.270256      	91.60622       	91.072426      	89.96778       	89.63604       	91.69878       	92.885376      	90.84126       	89.38099       	91.81731       	91.334625      	92.28167       	92.19605       	89.51493       	93.38909       	92.45231       	92.77214       	91.99881       	90.28564       	93.48694       	93.029175      	93.173904      	91.885956      	94.05826       	92.55762       	91.7185        	92.88655       	91.734085      	94.80025       	95.03618       	92.11253       	95.17874       	93.67406       	93.93269       	94.33836       	94.2565        	94.25861       	94.07802       	93.361824      	93.4603        	93.106476      	92.252045      	94.00705       	93.40983       	93.24899       	94.42083       	93.67525       	93.81453       	94.55245       	93.05504       	93.79603       	94.68415       	93.26065       	94.50172       	92.49539       	94.0856        	94.44941       	93.17598       	94.22835       	93.16829       	93.07377       	94.077255      	92.96186       	93.44507       	94.02571       	93.06731       	94.41199       	94.913925      	91.86949       	94.43408       	93.82978       	93.721436      	93.619194      	92.956375      	93.65871       	93.09041       	93.253914      	93.075714      	93.2661        	93.63911       	93.47297       	93.66668       	93.05386       	93.942         	94.32512       	93.60821       	93.48731       	94.90378       	94.77526       	94.86301       	
93.162704      	91.81852       	90.275764      	92.493546      	91.45311       	91.28959       	90.54351       	92.3235        	90.681366      	91.122734      	91.92272       	92.48326       	93.21239       	91.530106      	90.41645       	90.31491       	92.08073       	92.51775       	91.54924       	90.152336      	90.16649       	93.1301        	93.79869       	91.90821       	90.20569       	91.50746       	92.47832       	93.601875      	92.25019       	90.61812       	90.22073       	92.52281       	93.90931       	93.82789       	90.573456      	90.942665      	92.87656       	93.08995       	91.821495      	94.305504      	93.36461       	91.86121       	92.502495      	93.43328       	92.948364      	93.84927       	93.545525      	94.05549       	92.84465       	94.59347       	92.98011       	92.1776        	94.24028       	92.38427       	92.76144       	93.14669       	92.62282       	93.85233       	93.640785      	94.00476       	93.16353       	94.12927       	93.107956      	94.43892       	94.59257       	93.37903       	94.74842       	94.3004        	92.67017       	95.048416      	94.07333       	92.6849        	93.90374       	93.69054       	93.011925      	94.87045       	94.249664      	92.51224       	92.2917        	92.94887       	92.382866      	91.76396       	93.072586      	92.728165      	92.32366       	93.12282       	92.17693       	93.10494       	92.784225      	92.0149        	92.8629        	93.77044       	92.047646      	92.77949       	93.47819       	93.037964      	92.839966      	93.20682       	93.61639       	94.11787       	
91.03802       	91.32291       	91.00497       	89.58929       	91.806076      	90.43031       	89.285324      	91.35887       	90.90596       	90.78292       	90.6779        	92.483795      	92.270065      	91.55263       	91.65883       	89.87442       	89.46379       	92.26119       	91.28063       	91.64501       	91.08253       	88.76954       	93.301506      	91.874374      	91.948105      	91.26059       	90.68236       	94.15064       	93.3431        	92.21546       	91.39641       	89.91536       	93.65126       	92.12987       	91.98457       	92.467155      	94.01135       	94.6057        	92.694855      	91.96232       	94.430626      	93.971436      	93.72677       	93.385605      	95.516         	94.6266        	92.95426       	95.018684      	92.88103       	92.95171       	93.84541       	92.84007       	93.29222       	93.38423       	92.861115      	93.31238       	93.697395      	92.93382       	93.74538       	93.33212       	92.40356       	93.32628       	93.177246      	92.96842       	94.16793       	92.42713       	94.13604       	94.188324      	92.131676      	94.27269       	92.94554       	91.69414       	91.92182       	92.39503       	92.03157       	90.88182       	93.224045      	92.42219       	91.52396       	92.15601       	91.542694      	91.945786      	92.948975      	92.172745      	93.4652        	93.23865       	91.93392       	92.92285       	92.57061       	92.342445      	92.574425      	92.98426       	93.13254       	93.62221       	93.613976      	92.37629       	93.99892       	93.60559       	93.9005        	93.18164       	
92.48089       	91.276924      	91.83602       	91.052         	90.848724      	92.15785       	91.65746       	91.03929       	92.545006      	92.187454      	91.16708       	90.70466       	92.532715      	92.47149       	92.240845      	91.29865       	89.98702       	93.20712       	91.726715      	91.93563       	91.28387       	89.41283       	93.58775       	93.293365      	92.52881       	92.06775       	91.30545       	94.66853       	94.49572       	94.31563       	93.016205      	90.87973       	94.83324       	94.25471       	94.29841       	94.02551       	91.95317       	96.4344        	94.36122       	93.07152       	93.83932       	95.73192       	94.52971       	93.62462       	95.38162       	94.78572       	95.55846       	94.74848       	94.85692       	95.191086      	94.05961       	94.97784       	94.39548       	93.74442       	93.79583       	93.748566      	93.92587       	94.12332       	94.72415       	95.19955       	94.80187       	95.83549       	94.3434        	94.969765      	94.813065      	93.19475       	94.36189       	94.40304       	93.82821       	92.3168        	93.92789       	94.07095       	91.94959       	95.443924      	92.967285      	91.8234        	93.31471       	92.35294       	93.44423       	93.35007       	93.88592       	93.42294       	92.12167       	92.73963       	92.29686       	94.163734      	94.155075      	93.64886       	94.63883       	92.60314       	95.31604       	94.322556      	92.467926      	93.59566       	93.10307       	93.10324       	93.93902       	94.06845       	93.25355       	93.8449        	
90.030754      	89.192215      	89.38775       	90.76549       	89.965546      	90.865166      	90.386955      	90.87283       	91.78393       	90.81908       	91.183716      	91.64366       	91.23807       	91.68039       	90.92323       	92.261566      	92.090416      	90.7937        	90.262726      	89.487465      	92.34815       	92.48808       	92.42493       	90.949875      	90.517784      	89.36623       	93.52991       	91.510284      	91.517334      	91.204094      	89.88547       	93.28671       	93.54707       	91.90282       	90.862495      	90.827835      	94.134575      	93.89659       	92.9648        	92.11809       	94.586136      	95.05303       	94.2034        	92.820076      	96.023964      	94.32703       	93.49891       	94.8242        	94.04294       	93.49196       	93.302734      	93.61605       	93.46148       	92.70448       	94.74173       	93.17302       	92.9409        	93.462875      	93.4963        	94.35822       	93.855225      	94.83088       	93.14181       	91.31958       	94.207634      	92.46408       	92.546455      	93.55809       	93.381035      	92.59465       	94.01207       	92.95512       	91.7489        	91.975716      	93.01177       	92.47761       	92.80446       	92.41053       	93.30828       	92.82492       	92.673096      	91.44849       	93.23685       	92.6289        	91.53411       	91.35913       	93.01087       	92.20546       	92.80081       	93.45333       	92.66215       	93.49182       	93.750114      	93.27278       	93.44458       	94.36231       	94.3379        	93.65251       	94.381294      	94.631256      	
91.92668       	91.33911       	92.174965      	91.921196      	91.27497       	92.266304      	91.412544      	91.89412       	92.5723        	92.201385      	92.72679       	93.08427       	92.895134      	93.411446      	92.44425       	93.45402       	93.27166       	93.784546      	92.14057       	90.70289       	93.70535       	93.71864       	93.11391       	92.76468       	92.124344      	90.150986      	94.50385       	93.99584       	92.97526       	92.06828       	91.45452       	94.674164      	94.49718       	93.3562        	92.51409       	91.21684       	94.882034      	94.1812        	94.47714       	93.141106      	94.95906       	94.71423       	94.4228        	92.94809       	95.55287       	94.6982        	93.81841       	95.717545      	95.46428       	93.217896      	92.234566      	94.810234      	93.737076      	93.67327       	94.085205      	94.00785       	94.00439       	95.20348       	93.96575       	93.29527       	93.46232       	94.18572       	94.192055      	92.950935      	94.14163       	94.190186      	92.7982        	91.397064      	93.95165       	93.11573       	92.52332       	92.15038       	93.862076      	93.04892       	92.538506      	92.05678       	92.68111       	92.86096       	91.97447       	90.557495      	94.39316       	92.251236      	92.265785      	92.4613        	92.49306       	93.74618       	93.9607        	91.759         	93.3328        	92.75017       	92.41411       	92.75837       	93.40999       	93.96349       	93.23791       	92.86872       	93.29903       	93.18199       	93.81456       	93.75424       	
91.395584      	90.878624      	91.82555       	91.01981       	90.62765       	91.471954      	91.1788        	93.254         	91.70165       	92.338455      	92.52416       	93.30941       	93.25044       	91.12838       	91.62308       	92.793         	93.667885      	93.475464      	91.460556      	91.77999       	93.34865       	94.036514      	94.876305      	91.807236      	90.762115      	93.12049       	95.79056       	95.55971       	93.62597       	92.74239       	92.506256      	96.59433       	95.5177        	92.95783       	93.66797       	93.671585      	96.80311       	96.23169       	93.39134       	93.906586      	96.05893       	96.5299        	94.68632       	92.87454       	96.47194       	94.006905      	94.7609        	94.92551       	96.053055      	96.25211       	94.51075       	96.045944      	95.590935      	94.29041       	95.480385      	95.888664      	95.63506       	94.14244       	96.97352       	94.70068       	92.27428       	95.584         	94.57626       	93.76348       	92.85038       	94.90994       	94.727325      	94.38477       	93.90043       	91.92636       	95.254         	94.505325      	92.97004       	92.57479       	93.23426       	93.34518       	94.108154      	91.56608       	94.432785      	92.780136      	91.75052       	92.6016        	91.84162       	93.99137       	93.23115       	92.33801       	92.08602       	92.96376       	93.56637       	93.14103       	92.08415       	93.22294       	93.17345       	93.1382        	92.36555       	93.749916      	93.97155       	93.938934      	93.93253       	94.0489        	
92.0316        	92.92247       	90.39222       	90.97164       	91.63691       	92.16464       	92.41983       	90.25841       	91.101204      	90.85218       	90.911224      	91.522705      	91.46666       	91.63872       	91.339096      	90.21346       	89.62123       	92.84999       	93.45767       	91.36514       	90.42702       	91.58627       	90.38669       	94.685265      	92.76547       	91.11745       	92.26319       	90.05523       	87.4045        	94.97782       	94.02754       	93.41885       	92.31385       	90.67426       	95.02048       	94.53637       	93.99936       	93.3425        	91.51249       	96.34595       	95.06273       	93.08867       	92.89958       	94.652145      	93.93741       	93.60564       	92.336006      	95.128815      	93.659004      	93.217705      	94.48851       	94.73348       	94.02786       	91.3358        	95.96407       	93.77206       	92.182945      	93.27306       	93.81945       	94.45345       	93.414375      	90.999214      	95.00905       	92.970566      	92.405525      	91.41675       	90.36942       	93.35622       	92.744225      	91.62469       	91.22221       	93.52988       	93.28254       	91.81485       	91.554474      	92.99194       	92.7717        	93.286934      	91.863976      	91.02513       	92.52471       	92.99528       	92.66228       	91.99581       	91.4544        	93.273575      	93.79806       	93.420944      	91.42779       	93.53148       	92.500534      	92.61028       	93.44645       	92.934814      	94.08357       	94.21585       	93.594246      	93.00361       	94.58215       	95.767075      	
92.320305      	91.73137       	92.3476        	92.39246       	91.94878       	92.82459       	91.42806       	91.84732       	91.56395       	90.797966      	93.376816      	91.066124      	92.33931       	93.43319       	90.17891       	89.29175       	92.20671       	92.04051       	93.297195      	91.446075      	90.14754       	90.09754       	94.6833        	94.842354      	93.7373        	92.46403       	90.47547       	89.41318       	94.30285       	94.45735       	93.074394      	91.94808       	90.50098       	90.56645       	94.188446      	94.40893       	92.99234       	91.067215      	91.09311       	95.20837       	93.66244       	92.386955      	92.8074        	94.55767       	95.33763       	94.3059        	91.35285       	96.9164        	93.93236       	93.60082       	93.18254       	95.37005       	95.54343       	93.39357       	91.87139       	94.72337       	95.093704      	94.239365      	90.95515       	95.396736      	93.2827        	93.97397       	93.63794       	90.179085      	96.25799       	92.45391       	91.26974       	93.10007       	90.70948       	94.27794       	93.635735      	91.5185        	92.204155      	91.261024      	93.85457       	94.03946       	92.15279       	91.38846       	91.12922       	92.967354      	92.96168       	93.67004       	91.586426      	93.82588       	93.801506      	92.08332       	91.28776       	91.61223       	94.415215      	92.9341        	92.881744      	94.05164       	93.591995      	95.5629        	94.36457       	92.96624       	93.41537       	94.51606       	94.33602       	94.51319       	
92.3712        	92.39734       	92.751434      	92.82364       	92.78458       	93.26221       	93.49117       	92.60927       	94.37582       	93.84014       	92.92107       	92.50915       	94.4581        	92.9535        	92.45671       	92.47384       	90.21066       	94.90496       	94.48181       	93.10158       	92.888145      	92.30004       	89.47708       	88.83915       	93.31864       	93.53748       	94.76416       	91.87133       	90.38852       	90.89316       	94.380486      	95.07066       	92.98172       	90.21737       	89.79227       	94.54631       	94.02905       	93.712166      	92.59347       	90.32447       	95.653244      	93.97994       	92.56227       	91.698364      	93.92691       	94.70828       	93.70417       	91.59204       	95.986664      	95.04154       	92.77987       	93.22301       	95.18714       	95.243774      	94.46231       	93.728745      	91.15881       	95.662766      	93.94414       	92.242676      	91.93665       	94.64403       	95.14312       	93.438965      	91.423225      	90.03687       	93.903755      	93.57128       	93.72769       	92.08206       	90.50154       	95.470535      	94.33635       	92.74498       	93.13097       	91.674805      	94.86808       	94.441635      	91.98341       	91.292404      	91.48097       	93.91185       	95.068085      	93.9969        	92.46716       	92.84067       	94.76619       	94.17133       	93.489494      	93.337296      	94.40904       	95.50748       	94.38095       	92.54513       	94.067764      	93.31055       	93.83394       	95.18966       	96.89841       	97.03395       	
91.860344      	91.40901       	92.07323       	92.38515       	90.51205       	93.54666       	92.80749       	90.85275       	93.29765       	92.182205      	92.60861       	93.21667       	93.14906       	93.349884      	93.21764       	91.82282       	90.61374       	94.28388       	94.84114       	92.927284      	91.629845      	92.13635       	90.3871        	95.77169       	94.81628       	92.78814       	93.05665       	92.027626      	89.63555       	94.0968        	94.32559       	92.627556      	90.1288        	89.910515      	93.94762       	94.06991       	93.81913       	90.40931       	89.11673       	95.68473       	93.62073       	93.2727        	92.05427       	94.63378       	94.2059        	92.57307       	91.30616       	94.53248       	93.042816      	91.795845      	92.2617        	94.14122       	94.3025        	93.02525       	90.39343       	95.237015      	93.45088       	93.29719       	93.0441        	90.90486       	96.04838       	94.01685       	92.40372       	91.47285       	89.97674       	93.45705       	94.498726      	92.10046       	89.51706       	90.413246      	92.679276      	93.334854      	92.9254        	90.622795      	88.75823       	93.45119       	92.88957       	91.97884       	91.54161       	90.61311       	94.52394       	93.074455      	92.59543       	93.14228       	92.44146       	95.04431       	94.52467       	92.51877       	91.95572       	92.39758       	93.236244      	96.167206      	92.98427       	91.39601       	94.82156       	93.079216      	94.56546       	96.20782       	96.96183       	96.33229       	
93.49992       	92.79449       	93.568115      	91.713554      	94.518295      	93.56156       	91.88261       	95.38642       	93.61305       	95.76214       	96.28979       	92.657745      	92.14699       	93.989105      	92.707466      	94.74892       	92.23149       	89.54948       	94.56449       	93.540436      	94.55067       	94.225784      	91.29723       	89.83268       	90.90364       	94.86342       	93.20979       	92.84431       	90.97115       	88.66906       	93.61865       	91.708305      	91.01311       	90.7861        	94.88339       	94.972115      	92.7104        	90.63736       	90.99678       	93.48998       	95.08672       	93.01375       	90.29186       	95.192184      	92.91993       	92.42176       	92.0807        	94.005325      	94.31819       	93.74215       	91.311646      	95.20036       	94.34451       	92.377495      	92.05922       	94.00682       	94.94223       	94.17939       	91.65933       	89.83919       	93.574585      	93.03386       	93.50191       	91.31905       	89.37756       	94.11071       	94.032364      	93.2506        	92.17685       	91.12289       	94.164635      	95.099846      	92.32713       	89.71284       	91.3249        	92.856186      	94.772125      	92.6427        	90.23446       	91.28483       	90.681694      	94.368         	93.89891       	91.96358       	92.19083       	94.078766      	93.63358       	94.44569       	93.64078       	92.0029        	94.41402       	94.54637       	93.916916      	92.79659       	93.96675       	93.07376       	94.34659       	95.028854      	95.58452       	95.043976      	
91.65182       	92.40031       	91.85208       	92.33667       	93.366714      	93.126945      	91.876045      	94.23148       	92.84118       	91.717636      	95.07555       	92.942085      	92.70931       	93.774864      	93.927536      	95.36642       	92.585556      	90.74964       	91.31072       	94.53129       	95.15675       	94.22229       	93.81483       	92.352585      	90.74923       	95.732864      	94.42196       	94.30389       	93.47413       	90.612885      	96.06795       	92.987305      	92.313644      	93.46952       	90.01831       	97.310425      	94.03344       	91.84099       	93.5017        	95.35315       	96.96353       	94.75552       	92.16745       	95.600716      	93.81811       	95.01615       	93.73662       	95.80481       	95.083466      	93.342026      	92.000626      	95.62724       	94.721565      	93.88266       	92.739975      	91.83158       	95.23241       	93.666336      	94.13603       	92.1276        	89.89372       	95.7734        	93.38651       	93.024124      	91.763214      	88.821945      	94.93827       	91.78118       	91.8643        	92.51694       	89.133316      	94.80037       	92.07085       	91.119316      	91.16161       	89.7122        	93.701485      	93.82152       	92.35624       	91.32762       	91.56082       	93.02477       	94.70039       	92.72679       	91.016266      	92.18898       	93.13224       	95.10173       	94.47586       	91.72872       	93.526535      	93.85697       	94.38173       	93.87943       	92.64576       	94.703354      	94.46883       	94.68985       	95.186295      	95.04194       	
93.27386       	91.458405      	93.03907       	90.667534      	92.74763       	92.27213       	92.64506       	93.983185      	91.465034      	94.03288       	92.719315      	92.72267       	91.882256      	94.658615      	93.51649       	91.82789       	92.269646      	90.99958       	88.21049       	88.68856       	93.63752       	95.243126      	93.749626      	90.83853       	90.63188       	90.054596      	93.51897       	94.07799       	91.95035       	89.63851       	94.14578       	92.30988       	90.54239       	90.31711       	94.64864       	94.44587       	93.64808       	91.579994      	90.591194      	95.18904       	93.351776      	93.832726      	95.42355       	95.4189        	94.86657       	92.912994      	95.08951       	94.41108       	93.0511        	90.95113       	94.33147       	92.393105      	91.65918       	91.726776      	93.6808        	94.51233       	92.12687       	90.90323       	91.029625      	93.31498       	94.459564      	93.01953       	90.169174      	89.178604      	93.89892       	92.65962       	92.48127       	91.25058       	88.92022       	94.0574        	93.25272       	91.32731       	90.79496       	93.83939       	94.07027       	94.01635       	91.80374       	90.30427       	94.93116       	94.736855      	93.34668       	93.11929       	92.67411       	94.83977       	94.76688       	94.73168       	93.52945       	92.37151       	94.23584       	94.175095      	94.73062       	95.177475      	93.04985       	96.00076       	95.27968       	94.78647       	96.691216      	97.51625       	96.32413       	95.18259       	
93.79407       	91.287605      	92.355606      	92.816605      	91.785645      	92.250374      	93.12873       	92.93327       	92.64364       	93.83992       	93.7412        	93.78541       	92.265625      	90.50448       	90.42472       	94.10987       	93.96704       	94.72384       	91.396286      	89.7448        	89.98128       	89.02678       	95.873665      	93.22305       	92.19453       	91.63565       	90.57549       	88.971794      	94.69646       	92.704796      	90.14716       	90.30043       	93.538376      	93.46981       	93.825455      	90.216606      	96.69107       	94.570816      	93.21057       	93.68396       	93.63103       	95.08626       	95.06031       	91.58065       	95.1964        	94.37338       	92.57972       	93.4298        	93.9312        	95.36543       	94.81894       	91.43635       	91.23007       	93.76077       	94.43412       	93.719925      	91.14578       	94.88477       	94.39587       	93.06259       	91.60941       	90.43287       	93.33391       	93.476326      	94.07567       	91.286064      	88.72751       	94.364334      	92.13173       	92.924995      	91.98534       	88.73449       	93.54321       	92.0232        	91.879234      	91.5076        	89.96321       	94.37835       	93.13713       	93.65697       	91.7235        	90.77957       	95.18705       	95.251915      	93.344185      	92.85155       	93.099174      	93.994385      	95.81086       	94.208176      	93.20932       	94.484         	95.36877       	96.57823       	96.15161       	95.022675      	94.97156       	94.51563       	95.38093       	95.09193       	
92.49256       	92.44622       	92.75488       	91.20828       	91.98706       	92.88106       	92.67193       	94.41399       	92.45267       	94.60251       	93.628         	91.21396       	91.347466      	91.30942       	94.37297       	94.5123        	92.95834       	91.56212       	92.17355       	89.93305       	88.051094      	95.96536       	95.140594      	93.80006       	93.03136       	91.83531       	89.249886      	95.07073       	93.35286       	92.420944      	90.849335      	88.23857       	93.25537       	91.34395       	91.68523       	89.910515      	95.23946       	94.34183       	92.13947       	90.52489       	95.17702       	94.39111       	93.240265      	92.14458       	94.806274      	94.7194        	93.97025       	91.78995       	95.84706       	94.104706      	93.21862       	93.00651       	94.66247       	94.99315       	94.49332       	93.15705       	91.43985       	95.797844      	94.45487       	92.54648       	92.34257       	90.93537       	94.79481       	94.71513       	92.03584       	90.72464       	89.90585       	94.70471       	93.92358       	92.6989        	91.1132        	89.55052       	94.05317       	93.16112       	92.222336      	91.074005      	89.5898        	95.30103       	93.85922       	91.93705       	92.13933       	91.73858       	94.983635      	94.66969       	93.52257       	92.53742       	93.02379       	94.1009        	95.20442       	94.548256      	93.9438        	93.5448        	93.00316       	94.24699       	96.4165        	96.0397        	94.53556       	94.33983       	95.40219       	95.81359       	
92.59914       	92.57202       	92.85128       	93.515495      	92.671455      	92.79998       	93.13994       	92.26547       	93.51978       	92.94828       	93.30018       	94.120674      	91.6191        	94.44217       	93.30749       	92.61282       	92.15527       	92.07834       	90.1893        	95.37477       	95.33727       	94.43629       	92.782394      	92.49586       	91.10201       	94.84923       	94.229324      	91.96026       	90.310005      	89.86152       	88.6479        	93.6481        	92.15442       	90.05411       	89.06898       	94.4825        	93.376945      	92.25673       	90.74791       	95.017975      	94.13549       	93.23005       	91.160904      	94.48649       	93.59302       	92.442856      	92.19709       	94.704216      	95.29265       	93.72942       	90.92613       	95.91984       	94.45004       	92.7957        	93.17127       	91.48693       	94.48429       	93.029785      	92.68729       	90.532524      	88.155014      	93.285515      	90.439705      	90.69117       	90.504486      	94.00016       	94.09          	91.06909       	89.936264      	89.33768       	92.48133       	93.064125      	91.70606       	89.65846       	88.98755       	93.90312       	93.8528        	93.25555       	92.96664       	91.37          	90.29695       	93.81164       	93.541435      	93.55274       	92.490486      	91.26242       	94.73355       	93.88899       	93.54784       	92.99761       	92.028595      	92.07698       	94.74219       	95.27516       	94.69599       	94.91387       	95.01712       	94.4898        	94.586945      	93.59052       	
93.448845      	93.30355       	93.09061       	93.43586       	94.237625      	93.730865      	94.23962       	95.0028        	93.62428       	95.18189       	94.89629       	93.60233       	96.53435       	95.38676       	93.087006      	93.425735      	93.36722       	96.03737       	95.45926       	93.678055      	92.4688        	91.80134       	90.03038       	88.9639        	95.10045       	94.3201        	92.6014        	91.843254      	91.36341       	96.48158       	96.42212       	93.88175       	92.63631       	92.06882       	95.73798       	95.94043       	93.67347       	92.04698       	96.06832       	96.15636       	94.26444       	92.02612       	96.995674      	95.132614      	94.97872       	95.78419       	96.827866      	96.55571       	93.84671       	92.57891       	96.90488       	94.573006      	95.94422       	94.67138       	96.185356      	96.45663       	94.669754      	93.23542       	91.99988       	94.291145      	94.05444       	95.11227       	92.62772       	90.605606      	90.54373       	94.27101       	93.41454       	92.7336        	90.463745      	89.020134      	93.47448       	92.5899        	90.49214       	89.98038       	89.108475      	94.582405      	93.59679       	91.08449       	91.458466      	91.07457       	94.68072       	95.104416      	92.554085      	91.85988       	93.658936      	94.542534      	95.61323       	92.846756      	93.07039       	93.374374      	92.101425      	94.343735      	94.4395        	95.01159       	94.3501        	93.46007       	92.97859       	92.96459       	94.01649       	94.35137       	
93.343315      	92.438126      	91.50406       	92.01803       	92.111626      	93.63781       	92.69173       	93.93987       	94.281906      	93.094185      	92.245285      	94.78514       	93.1524        	93.038536      	93.22993       	91.25713       	95.14469       	95.02559       	93.52489       	92.19499       	91.083115      	90.257774      	89.067184      	95.689224      	93.43713       	92.25439       	92.237885      	90.35173       	88.258995      	94.90979       	92.23479       	91.97321       	90.85322       	95.16479       	93.95719       	92.03137       	90.85604       	96.15132       	94.625565      	92.85847       	91.58167       	95.58094       	94.61232       	94.35273       	92.998215      	96.488976      	95.54527       	92.94807       	91.95605       	95.26245       	93.76045       	93.887825      	92.44937       	95.67936       	94.476845      	93.71297       	92.146355      	90.07471       	95.19215       	92.82028       	93.121506      	91.58906       	89.40471       	94.24601       	93.37597       	91.68932       	90.48117       	90.120766      	94.34762       	93.91284       	92.055824      	90.00078       	88.32121       	93.192924      	92.97509       	94.02174       	92.231804      	89.48624       	95.78651       	93.1637        	93.826035      	93.52342       	91.32862       	95.72913       	94.6247        	94.30732       	94.96988       	92.33184       	91.51641       	94.8946        	94.645424      	93.82332       	94.46562       	93.73418       	93.03234       	95.976166      	96.00865       	96.204475      	96.83821       	96.755325      	
93.06898       	92.65441       	93.27631       	91.95135       	93.95471       	92.37655       	92.96961       	94.82315       	92.94173       	94.594086      	94.06407       	91.68274       	95.15777       	92.93526       	92.32234       	92.70201       	95.44935       	95.479454      	94.36862       	93.65197       	92.04105       	89.49767       	89.21105       	93.360245      	95.723495      	93.875374      	90.59992       	91.39106       	90.46003       	94.55031       	93.79785       	90.67824       	89.78207       	93.509         	93.83851       	93.51432       	90.36698       	95.51863       	92.486626      	92.566666      	93.56436       	94.853386      	94.89539       	91.05413       	96.247925      	93.55167       	91.899055      	94.82982       	92.94701       	95.868034      	94.26082       	90.50001       	96.85404       	93.13469       	94.441025      	93.70975       	95.121216      	94.30587       	91.991646      	93.0388        	90.79163       	96.06971       	94.34976       	91.40409       	90.769806      	89.493805      	93.75448       	92.76116       	91.176506      	90.83105       	88.711754      	94.23958       	92.30697       	90.60745       	90.24991       	88.93523       	93.97522       	93.20812       	90.73906       	90.916         	90.61657       	93.69018       	94.053665      	93.5796        	92.63623       	91.489426      	93.89986       	92.90156       	93.12141       	94.05244       	92.72628       	91.33813       	93.7914        	93.88916       	95.18112       	95.175224      	93.74272       	93.71479       	94.554276      	94.5763        	
91.85361       	92.0512        	92.156006      	92.32494       	91.847565      	92.780136      	92.47299       	92.42205       	93.14574       	93.17729       	92.9706        	94.28061       	94.37287       	92.77405       	95.02234       	94.250694      	93.79253       	93.55877       	92.455826      	95.42115       	95.12701       	93.91026       	92.047646      	91.12733       	90.71007       	94.81381       	94.313385      	92.26625       	90.95515       	89.52607       	94.76846       	92.426674      	91.985115      	91.50955       	95.960075      	94.8112        	93.05197       	91.17623       	94.97665       	92.897545      	92.00758       	95.24801       	94.30054       	93.09974       	93.195915      	95.26502       	95.36764       	94.732544      	93.343         	95.958824      	95.51553       	93.11811       	92.74048       	95.363716      	94.11807       	94.19833       	92.38781       	95.678314      	94.88304       	93.10944       	92.28007       	90.420685      	89.406975      	92.13264       	93.168365      	93.04508       	88.665215      	88.287315      	91.90914       	90.96382       	91.65611       	88.70704       	93.61962       	91.82671       	90.61923       	90.20405       	89.10847       	93.82216       	93.26781       	91.68471       	91.80354       	90.27253       	94.09892       	93.11235       	93.081856      	94.0936        	91.90058       	90.26895       	93.381424      	92.96354       	94.37671       	92.76266       	91.264946      	91.53863       	93.88843       	94.477104      	95.26062       	94.86914       	94.51786       	94.28716       	
92.12204       	93.10829       	93.423386      	94.47066       	92.10291       	93.62435       	92.69795       	93.28212       	94.615654      	93.68092       	93.92903       	94.05907       	94.08773       	94.30827       	94.87889       	94.81794       	94.47594       	92.69801       	92.86927       	95.09533       	95.14279       	94.766884      	92.85861       	91.59799       	91.834404      	94.64759       	93.33636       	92.61915       	91.55591       	93.86039       	93.71016       	93.39879       	91.38758       	94.59207       	93.6235        	91.49911       	94.41751       	93.38447       	91.51591       	95.16303       	94.35285       	93.65379       	91.86148       	95.44893       	93.45783       	93.52225       	94.89499       	94.32492       	94.8047        	95.188446      	95.252205      	94.75952       	92.97534       	96.681404      	96.12411       	94.43948       	93.46793       	92.77563       	95.62535       	94.103035      	93.6172        	92.54595       	90.30945       	95.30954       	94.49393       	93.38424       	92.2037        	90.24369       	94.02067       	93.46474       	91.59136       	94.256386      	92.99129       	91.77845       	90.946396      	94.29485       	94.11614       	94.230316      	93.37093       	91.43511       	95.33426       	95.49406       	94.336426      	93.52783       	92.96967       	92.65807       	96.21983       	95.81758       	94.09169       	94.39812       	93.340546      	92.52438       	95.50965       	96.05551       	95.47696       	94.6024        	94.99844       	95.54529       	95.15248       	95.0271        	
91.42797       	91.46413       	92.58817       	92.96611       	91.60936       	92.58199       	92.81609       	93.13867       	93.78858       	93.24234       	94.36948       	93.7787        	94.042656      	94.67217       	93.42259       	92.0846        	94.50628       	93.885         	93.94489       	92.2858        	91.43619       	90.104385      	94.74442       	93.7086        	92.73842       	92.56387       	90.54471       	94.661         	93.291275      	91.63874       	91.79374       	94.4713        	93.7046        	92.01256       	93.70301       	93.10623       	92.32698       	94.34917       	94.23207       	93.840805      	92.0367        	93.98544       	93.78033       	93.323975      	94.17891       	94.37025       	93.11982       	93.879425      	94.310745      	92.84444       	94.71005       	94.79527       	92.8916        	92.237274      	94.79546       	93.882         	92.86177       	91.66397       	91.05695       	93.95723       	93.896034      	92.18194       	90.37155       	89.61678       	93.85409       	92.36991       	91.263016      	90.67848       	92.902824      	92.63227       	90.985275      	90.662994      	92.99553       	92.26436       	90.5029        	89.86112       	94.08675       	93.10088       	92.618095      	92.351364      	90.36573       	94.615685      	93.96818       	92.171425      	92.76452       	91.83652       	93.66333       	93.90645       	93.70256       	93.1443        	92.52275       	92.027504      	92.3358        	94.7142        	95.12082       	94.57159       	94.30976       	94.172905      	94.43356       	94.68321       	
92.12221       	92.50054       	92.814285      	93.17525       	92.837715      	92.41979       	94.59534       	93.71113       	95.2642        	93.96076       	94.552155      	95.06591       	93.06084       	94.39705       	94.296585      	93.63594       	93.985         	92.289215      	95.36065       	93.59882       	92.6502        	93.383865      	91.40076       	95.63904       	94.77343       	92.52223       	92.73778       	91.587395      	94.35002       	94.32532       	92.42901       	90.80571       	95.099106      	94.05103       	92.33337       	95.07227       	94.05098       	92.871056      	92.09044       	94.73326       	94.45675       	93.53057       	94.84511       	94.176155      	95.14574       	95.06312       	93.87147       	96.43926       	95.66443       	93.25152       	95.233246      	93.456795      	92.34234       	92.7773        	93.8036        	94.11511       	92.67094       	91.44205       	90.78247       	93.69449       	93.34551       	91.72768       	90.72073       	91.047646      	93.8368        	94.404305      	92.023544      	90.81221       	93.106735      	92.17086       	91.57508       	90.495026      	93.33532       	92.76146       	91.7216        	92.04672       	90.508415      	93.49158       	93.23607       	91.42492       	91.50501       	90.72925       	93.883896      	93.73841       	94.04695       	93.004524      	91.83149       	91.32881       	93.64745       	94.743774      	94.59931       	93.93239       	93.00618       	92.57858       	94.785645      	94.860634      	95.200325      	95.581024      	95.36657       	95.48548       	
