# www.neaspec.com
# Scan:	 	Whitelight Imaging
# Project:	 	20251007_PS
# Description:	 	
# Date:	 	10/07/2025 11:32:10
# Scanner Center Position (X, Y):	[µm]	49.99	50.01	 
# Rotation:	[°]	0	 	 
# Scan Area (X, Y, Z):	[µm]	5.000	5.000	0.000
# Pixel Area (X, Y, Z):	[px]	100	100	1
# Interferometer Center/Distance:	[µm]	0.000	0.000	 
# Averaging:	 	1	 	 
# Integration time:	[ms]	5	 	 
# Wavenumber Scaling:	 	1.000000	 	 
# Laser Source:	 	4.5-15 µm nano-FTIR laser
# Detector:	 	R
# Target Wavelength:	[µm]	7.502	 	 
# Demodulation Mode:	 	Fourier
# Tip Frequency:	[Hz]	241,340.500	 	 
# Tip Amplitude:	[mV]	45.700	 	 
# Tapping Amplitude:	[nm]	70.684	 	 
# Modulation Frequency:	[Hz]	0.000	 	 
# Modulation Amplitude:	[mV]	0.000	 	 
# Modulation Offset:	[mV]	0.000	 	 
# Setpoint:	[%]	79.75	 	 
# Regulator (P, I, D):	 	4.206850	8.625812	1.000000
# Tip Potential:	[mV]	0.000	 	 
# M1A Scaling:	[nm/V]	0.426	 	 
# M1A Cantilever Factor:	 	1,000	 	 
# Q-Factor:	 	487.4	 	 
# Version:	 	2.1.11536.0
81.08432       	80.60198       	76.84125       	80.811424      	75.26598       	91.93958       	92.1244        	70.91666       	92.02471       	92.22051       	92.429695      	92.396736      	89.552956      	92.22505       	92.43728       	92.5863        	88.20866       	92.15444       	92.40037       	92.58471       	92.73854       	92.32595       	92.13399       	92.38374       	92.58405       	92.741974      	92.85985       	92.67691       	85.620094      	92.592384      	92.76055       	92.86396       	92.943         	87.79635       	92.60211       	92.75985       	92.844734      	92.9245        	92.562386      	92.44951       	92.645294      	92.75678       	92.83557       	92.853455      	87.38237       	92.56961       	92.69041       	92.68487       	86.729866      	92.55615       	92.635025      	88.89902       	92.55921       	89.17569       	82.85953       	79.01158       	79.9231        	78.47608       	82.8519        	79.483116      	88.57836       	92.58585       	86.323845      	92.50593       	90.87741       	79.545845      	82.117424      	92.54426       	57.990547      	88.09183       	92.57003       	85.353935      	92.52215       	92.253         	86.11736       	92.66096       	92.825325      	88.05273       	92.56064       	92.743706      	92.686424      	87.616646      	92.692215      	92.76666       	88.60817       	92.66126       	92.82521       	82.933014      	92.57831       	92.79916       	92.88581       	85.63747       	92.464134      	78.66328       	76.77766       	80.6102        	81.175934      	82.9389        	81.96809       	82.97747       	
78.396484      	80.38249       	81.43587       	78.01207       	79.74765       	78.681366      	91.94948       	90.57359       	91.95654       	92.152306      	92.34825       	92.43806       	85.38414       	92.184586      	92.391945      	92.570595      	90.724174      	92.09232       	92.31552       	92.51913       	92.65074       	92.53579       	89.903984      	92.39965       	92.6126        	92.76081       	92.84566       	92.78944       	90.299866      	92.583725      	92.749214      	92.85688       	92.89231       	92.30183       	92.52352       	92.66999       	92.76986       	92.863014      	92.90224       	90.5428        	92.582726      	92.72326       	92.82278       	92.75077       	84.85841       	92.577675      	92.68815       	92.78186       	86.7835        	92.52219       	92.64954       	90.22461       	92.49825       	92.59538       	80.396835      	78.56066       	79.032135      	79.28207       	83.22202       	80.44364       	85.366196      	89.36809       	92.54487       	86.78065       	92.517586      	85.944275      	78.855255      	92.454285      	90.741005      	91.45661       	89.56479       	78.225075      	92.423355      	91.96502       	88.76217       	92.68782       	92.84541       	84.8997        	92.57682       	92.7622        	91.04427       	92.510254      	92.71604       	92.76961       	89.80702       	92.695595      	92.85902       	86.73423       	92.45656       	92.65266       	92.47804       	86.88829       	92.324715      	80.9873        	78.75542       	76.49768       	81.38677       	82.91103       	83.53203       	83.12789       	
79.661156      	78.93074       	80.72271       	79.69645       	80.03507       	79.634544      	80.00561       	80.084656      	79.05496       	91.96651       	92.193825      	92.31764       	87.63664       	92.16545       	92.34138       	92.49384       	87.3537        	92.214195      	92.418564      	92.57093       	91.82506       	92.14656       	92.381134      	92.54436       	92.70539       	92.790474      	84.84742       	92.43639       	92.637695      	92.77945       	92.85789       	92.91485       	89.38457       	92.60953       	92.74617       	92.85245       	92.91026       	86.59068       	92.51984       	92.66454       	92.77008       	92.848694      	87.10114       	92.53915       	92.66281       	92.74409       	92.11652       	92.47759       	92.619026      	92.6683        	89.333         	92.58043       	92.19277       	87.527954      	92.59195       	80.638374      	77.48841       	78.749306      	78.57765       	78.981         	79.857086      	77.52346       	91.79277       	92.499794      	76.07178       	87.798004      	91.73826       	81.06421       	80.123276      	77.588295      	76.37587       	82.53552       	82.73731       	92.5506        	78.09493       	92.53608       	92.74397       	92.571304      	85.55681       	92.697334      	92.85605       	89.798164      	92.643074      	92.81886       	91.31284       	92.57465       	92.771965      	92.850136      	88.941376      	92.72685       	92.7125        	85.82177       	91.70606       	75.13129       	76.206985      	82.558846      	79.95914       	78.738495      	82.06121       	84.23817       	
78.88628       	81.49035       	81.19256       	79.61949       	80.14998       	79.76981       	79.91072       	79.01435       	81.06994       	80.41815       	78.614426      	92.04678       	92.23544       	92.04292       	91.9921        	92.22879       	92.42696       	92.52032       	89.67774       	92.20943       	92.41605       	92.59787       	91.53504       	90.65606       	92.3888        	92.52126       	92.63002       	92.72996       	92.073494      	92.40068       	92.56427       	92.72712       	92.82281       	92.89204       	87.26873       	92.55808       	92.68526       	92.77385       	92.87033       	79.27754       	92.51254       	92.64802       	92.76772       	91.2655        	92.44626       	92.60258       	92.70918       	91.087906      	92.49802       	92.63146       	92.67407       	86.74161       	92.535446      	92.64884       	86.02813       	92.54216       	91.82651       	77.65834       	78.80612       	79.38324       	80.79915       	92.496506      	92.502655      	87.006035      	92.56685       	89.90717       	80.54725       	76.60802       	79.641975      	81.2394        	79.76575       	79.76177       	80.01473       	81.292595      	76.02035       	81.67854       	87.796974      	92.50342       	86.76045       	92.65142       	92.8403        	88.19098       	92.585495      	92.77709       	92.61523       	85.314186      	92.696526      	92.84832       	76.10546       	92.67155       	92.664505      	88.98803       	92.64468       	78.5578        	76.43452       	81.102         	81.32921       	81.74689       	82.38647       	82.9825        	
79.946686      	80.552605      	80.54558       	80.14406       	80.44268       	80.01494       	78.92954       	81.09838       	80.90529       	80.7502        	76.148155      	80.29057       	79.95668       	86.65103       	92.08877       	92.278824      	46.902477      	92.08511       	92.32366       	92.481514      	85.34289       	92.16712       	92.40705       	92.574646      	92.698586      	77.04987       	92.33381       	92.54838       	92.69815       	92.78434       	92.86217       	89.64898       	92.47984       	92.671364      	92.738         	92.81262       	87.883865      	92.52827       	92.63838       	92.74928       	92.7698        	87.60579       	92.54674       	92.6662        	92.75388       	79.73392       	92.46824       	92.624146      	92.724396      	87.51385       	92.55898       	92.703766      	90.164604      	92.505714      	92.62374       	85.41257       	92.42643       	92.57494       	90.22766       	92.422554      	92.61385       	87.41114       	92.13195       	92.63543       	87.66538       	92.463036      	92.58982       	77.00601       	75.66286       	82.55611       	78.813896      	85.465706      	92.20957       	77.614296      	76.95276       	90.74944       	85.65621       	92.4519        	88.42631       	92.50382       	92.70413       	92.86616       	87.80633       	92.66016       	92.83236       	92.12089       	90.9134        	92.73116       	92.73235       	87.054504      	92.71392       	92.06857       	92.32933       	92.30631       	76.41162       	78.34205       	81.19982       	81.65484       	85.520615      	83.75137       	
79.789894      	80.43066       	80.90007       	80.487366      	79.901985      	80.71585       	80.003845      	80.19472       	80.32452       	78.95025       	81.4238        	79.97719       	80.31748       	88.09203       	92.004944      	92.21826       	85.08863       	92.07101       	92.29855       	92.09213       	84.852615      	92.230736      	92.4127        	91.305595      	91.942986      	92.382         	92.5759        	92.68687       	92.78774       	78.46721       	92.343216      	92.55424       	92.66554       	92.75796       	91.1637        	92.4569        	92.600494      	92.6971        	92.77974       	88.01572       	92.495384      	92.6263        	92.703445      	88.16232       	92.50177       	92.652115      	92.789986      	85.954796      	92.43052       	92.58034       	92.72544       	85.10647       	92.47379       	92.628944      	90.49305       	92.39754       	92.56249       	92.338         	85.86095       	92.52976       	91.841034      	82.41281       	92.4796        	92.628334      	75.44781       	76.48993       	77.02529       	80.1532        	81.66493       	80.81485       	79.83203       	80.13681       	80.95422       	79.67095       	80.97443       	78.12204       	82.72891       	78.13101       	80.363686      	92.492195      	92.41185       	86.51645       	92.67735       	92.810875      	86.09932       	92.55419       	92.72516       	92.05615       	92.37483       	92.73535       	90.22707       	92.53136       	92.30358       	77.72058       	80.40256       	79.786896      	81.02116       	80.16516       	85.33628       	83.14356       	
80.16291       	78.38502       	83.182106      	80.33525       	80.37356       	80.61261       	80.622604      	80.00793       	79.067856      	79.82078       	81.401276      	82.08227       	79.27637       	80.442055      	82.552086      	90.999756      	92.07965       	92.21344       	88.72138       	92.02965       	92.21677       	77.84084       	92.17758       	92.36339       	92.51316       	90.41725       	92.19414       	92.43          	92.60701       	92.699295      	91.64717       	90.33794       	92.50587       	92.65134       	92.730415      	92.69439       	87.963646      	92.54979       	92.64444       	92.74002       	41.330044      	92.516945      	92.62744       	92.727715      	87.52929       	92.5055        	92.63185       	92.771         	91.63461       	90.498184      	92.579285      	92.72264       	92.62395       	88.062836      	92.439606      	92.534355      	77.30925       	79.19259       	79.492805      	86.98482       	91.68737       	91.73178       	82.256485      	79.33005       	81.40053       	81.432945      	81.0768        	78.64279       	78.40342       	79.06093       	80.608154      	79.31197       	80.88482       	78.79923       	81.06799       	81.20891       	79.96364       	78.646935      	80.08781       	86.20411       	92.218636      	89.75266       	92.31533       	92.46255       	92.32605       	84.459984      	92.355675      	92.51034       	84.55201       	92.25893       	91.841446      	76.90751       	79.08159       	80.46283       	79.10257       	78.96508       	80.174164      	82.33745       	86.3319        	87.547585      	
80.86438       	80.0593        	80.33189       	80.078285      	81.457596      	80.24035       	79.75704       	80.4295        	78.75818       	81.18754       	80.928215      	80.528625      	81.20051       	81.310356      	76.3926        	91.93968       	92.206535      	82.43873       	92.01611       	92.23441       	91.96207       	88.17062       	92.262726      	92.3091        	87.416885      	92.30246       	92.47868       	92.564995      	86.018166      	92.3906        	92.48131       	92.57914       	92.64216       	88.256485      	92.47442       	92.58864       	92.70988       	92.70895       	88.80251       	92.529686      	92.63647       	92.60071       	85.182526      	92.48816       	92.62627       	92.69875       	88.10837       	92.40663       	92.549835      	92.70432       	87.948944      	92.45574       	92.62603       	92.71933       	89.87197       	92.4145        	92.59241       	92.44812       	90.30362       	92.5468        	92.72994       	89.751884      	92.46624       	92.649765      	90.83046       	83.236115      	81.60119       	79.33738       	79.68605       	78.770515      	80.1311        	79.28694       	79.92677       	77.91293       	81.68424       	80.46384       	81.27345       	79.82417       	79.16585       	81.97866       	79.75574       	81.98027       	92.551346      	92.62985       	85.83524       	92.61632       	92.65913       	85.768486      	92.652504      	90.76575       	82.33846       	79.77862       	79.325485      	79.564         	78.80317       	81.23208       	78.05833       	81.46143       	85.80697       	83.803055      	
79.77861       	79.79019       	80.20558       	80.47978       	80.281296      	79.58867       	79.99344       	79.339386      	79.85657       	81.231606      	81.377144      	80.342155      	79.93475       	79.62578       	80.53498       	80.66172       	81.246574      	82.31836       	82.84924       	92.03598       	92.03223       	85.79491       	92.15731       	90.1376        	88.32031       	92.215706      	92.39304       	92.329384      	86.548134      	92.321144      	92.48081       	92.583046      	91.115845      	92.2749        	92.45356       	92.55843       	92.64719       	83.954094      	92.45006       	92.580574      	92.67085       	90.55365       	92.439995      	92.566925      	92.67277       	91.176025      	92.36023       	92.52501       	92.66046       	91.28613       	92.35512       	92.539925      	92.68817       	91.27568       	92.36838       	92.55715       	92.70484       	88.84003       	92.38059       	92.55922       	92.70114       	41.43883       	92.4825        	92.707466      	90.69172       	92.28534       	92.27843       	83.6242        	78.38707       	80.19744       	79.41696       	78.96234       	78.63639       	80.24727       	80.86835       	80.13695       	79.98314       	80.01065       	81.68583       	79.31472       	79.09151       	78.816185      	80.61543       	78.08994       	79.181114      	92.20901       	92.27827       	86.97053       	75.83115       	78.680466      	78.49747       	79.68002       	80.451706      	80.406685      	80.014305      	78.95578       	78.87589       	83.092354      	85.59114       	84.51507       	
79.78225       	80.07726       	81.155426      	79.71158       	81.11877       	80.16597       	79.521095      	80.22072       	79.469345      	80.41018       	80.98992       	80.038795      	78.24711       	80.86875       	81.16814       	79.06214       	81.002495      	79.25432       	79.79296       	87.94853       	79.567154      	81.27598       	90.05481       	89.49043       	53.332417      	92.17006       	92.33244       	92.45725       	86.664055      	92.28745       	92.437805      	92.30118       	89.69438       	92.42924       	92.53049       	92.607605      	85.47938       	92.38707       	92.527275      	92.64083       	92.112854      	92.320076      	92.53343       	92.66646       	92.39721       	92.00064       	92.46825       	92.627205      	92.61783       	90.061676      	92.50072       	92.655624      	92.77944       	86.80417       	92.48069       	92.67968       	92.7609        	84.7923        	92.40188       	92.59419       	91.51119       	92.37869       	92.59845       	92.733734      	87.61204       	92.50281       	92.46552       	78.62603       	82.33528       	80.15823       	79.61221       	80.15517       	78.90896       	79.76549       	80.269875      	80.71933       	81.0329        	80.91613       	80.95008       	80.3251        	81.533455      	81.00848       	79.38474       	79.46027       	79.39642       	78.25223       	78.790344      	81.45503       	80.29678       	82.189476      	81.15858       	80.21513       	78.56417       	81.85434       	79.18467       	78.798164      	79.25113       	79.82767       	83.96807       	83.14325       	
79.839516      	81.23665       	80.165924      	79.90054       	80.57263       	80.64868       	80.38676       	80.85775       	80.46522       	80.10174       	80.922066      	80.79942       	81.387856      	81.46831       	80.55806       	80.47617       	82.13686       	81.28828       	79.04406       	81.164246      	82.46162       	89.78999       	89.3419        	88.15351       	92.03024       	92.22877       	92.35829       	89.17039       	92.26277       	92.408035      	90.93643       	92.24997       	92.392456      	92.52664       	90.541794      	92.05188       	92.463554      	92.58895       	92.681915      	85.92215       	92.44886       	92.57276       	92.69417       	87.86637       	92.36778       	92.51188       	92.63455       	62.578434      	92.38251       	92.5852        	92.74135       	87.805725      	92.40758       	92.61028       	92.74878       	80.657486      	92.3555        	92.55568       	92.47631       	89.45539       	92.508446      	92.63816       	89.38193       	92.51624       	92.631134      	89.80044       	92.61471       	92.16436       	76.06274       	81.01555       	80.27937       	80.12094       	79.57121       	78.81736       	81.780365      	81.877884      	79.97116       	78.269104      	80.86001       	79.957756      	81.29656       	81.63743       	80.80525       	81.85835       	79.66513       	82.07369       	81.755264      	79.52725       	79.51112       	80.37854       	80.56033       	80.28726       	80.45183       	79.86845       	81.066864      	84.63283       	84.789085      	80.75491       	79.85676       	85.08328       	
79.19277       	80.90519       	80.68866       	80.891075      	79.22879       	80.390144      	79.83329       	79.850845      	81.589775      	80.40242       	80.08391       	81.61777       	80.987015      	81.43193       	81.282845      	79.69802       	82.530106      	80.17081       	78.767715      	82.718605      	76.99214       	76.45666       	92.05076       	91.01761       	92.08977       	92.251945      	91.30311       	92.08633       	92.29335       	92.184204      	86.51997       	92.341446      	92.46695       	92.31416       	88.34427       	92.39403       	92.53572       	92.623245      	85.69439       	92.34386       	92.49422       	92.6161        	87.94943       	92.31439       	92.49834       	92.66071       	87.78286       	92.31446       	92.53676       	92.67814       	77.23032       	92.4476        	92.647705      	92.79448       	84.12553       	92.44012       	92.60801       	92.75579       	89.06773       	92.46821       	92.629486      	88.26579       	92.476326      	92.67093       	92.41507       	87.05682       	92.671844      	91.185356      	77.58765       	79.011444      	78.16604       	79.03272       	78.778404      	79.61974       	79.91711       	84.17513       	78.78618       	79.107185      	80.98918       	80.58942       	80.529816      	81.752914      	81.51755       	78.534706      	83.679436      	81.95297       	79.36933       	78.26559       	79.54968       	81.11716       	78.88519       	80.002174      	80.74322       	79.41885       	81.70575       	79.82024       	79.23748       	81.46861       	84.13405       	81.786125      	
80.07146       	79.54529       	79.980286      	80.82908       	80.75694       	80.17825       	79.55863       	80.42707       	80.16071       	80.11718       	80.71441       	79.544136      	81.445915      	81.70315       	81.11405       	80.41005       	80.70743       	80.54791       	80.33547       	81.29042       	81.18949       	78.46387       	86.970505      	92.134796      	87.64533       	92.13259       	78.27494       	92.11943       	92.2916        	52.64748       	92.23386       	92.40034       	92.35008       	92.13151       	79.09622       	89.65164       	92.3774        	92.51583       	92.609116      	79.285774      	92.29821       	92.45833       	92.61559       	92.46326       	88.09244       	92.46064       	92.627556      	92.74652       	90.202095      	92.41017       	92.59023       	92.68892       	88.57127       	92.468544      	92.6393        	92.16436       	88.2384        	92.610466      	92.76303       	79.60928       	92.4755        	92.66083       	81.11152       	92.433876      	92.67714       	89.8779        	79.45283       	80.69993       	78.88325       	81.99781       	79.46034       	79.74203       	80.38557       	79.76637       	80.34067       	81.382286      	81.37554       	79.42948       	81.556114      	79.87776       	78.06484       	80.104576      	82.98534       	80.09453       	81.500916      	82.54565       	81.13848       	81.24194       	80.09595       	80.72157       	80.22841       	81.513306      	79.56323       	81.77902       	81.95664       	81.88743       	82.83393       	85.070625      	83.29769       	83.7414        	
80.26693       	79.663025      	81.552536      	79.64483       	80.18915       	79.50286       	80.01746       	79.73196       	80.06655       	79.88507       	80.7616        	81.10118       	82.074585      	82.28092       	80.65787       	81.449165      	79.02123       	80.964066      	80.9924        	81.820724      	79.64606       	81.27447       	80.57722       	82.66561       	80.45928       	81.82937       	82.26994       	79.82558       	90.70428       	92.27424       	91.14885       	92.13517       	92.30845       	92.41472       	92.51188       	84.306946      	92.24813       	92.42231       	92.55385       	92.67149       	84.843124      	92.362175      	92.507324      	92.654236      	92.77179       	88.4997        	92.35696       	92.560844      	92.72111       	77.20743       	92.428055      	92.63376       	92.77483       	88.99806       	92.53545       	92.71795       	92.674835      	84.76534       	92.490074      	92.60926       	87.634995      	92.442986      	92.60182       	86.3089        	92.4578        	92.64227       	88.1966        	92.473305      	90.56771       	81.48672       	78.66268       	78.18352       	80.47157       	76.979866      	78.742485      	80.79761       	92.43787       	92.10171       	83.63436       	92.4375        	92.6211        	92.55972       	85.90446       	92.56823       	92.70451       	87.84032       	92.60117       	92.56971       	77.54897       	80.59511       	80.62722       	77.94716       	78.59123       	81.69337       	79.8259        	78.754875      	80.50318       	83.2279        	83.45615       	82.99854       	
80.0175        	80.35095       	80.36236       	79.27691       	78.11015       	79.93803       	80.22804       	80.16638       	79.77471       	80.34854       	81.42023       	80.9711        	82.61765       	81.01944       	81.15782       	81.75674       	80.38895       	79.1215        	80.806         	79.563896      	80.54913       	80.43131       	81.561935      	78.67182       	83.00567       	78.49187       	83.41989       	92.07724       	91.77961       	80.41841       	92.19656       	92.33047       	92.43296       	92.48858       	84.67777       	92.27904       	92.3991        	92.517815      	85.32391       	92.27432       	92.41514       	92.554474      	92.46042       	87.367615      	92.395966      	92.55411       	92.6765        	84.9364        	92.31447       	92.536194      	92.64288       	85.35983       	92.50877       	92.69567       	92.7689        	85.01193       	92.53922       	92.71197       	91.870094      	92.36065       	92.548546      	92.59795       	85.5605        	92.48858       	92.667         	60.707233      	92.42374       	92.61283       	82.3371        	78.032486      	78.88478       	85.071         	92.47768       	85.3932        	92.44099       	92.55917       	88.638214      	92.49592       	92.638916      	91.60765       	92.30239       	92.55536       	92.69772       	90.04709       	92.4588        	92.624725      	91.80718       	81.53088       	80.05186       	79.62892       	79.8801        	79.55553       	79.70088       	81.478226      	79.31493       	78.745186      	80.56594       	82.83656       	86.77861       	85.010216      	
79.67337       	81.09986       	79.76798       	79.19646       	78.146805      	78.78768       	79.00203       	79.88639       	80.63207       	78.39555       	80.30796       	80.12744       	82.22475       	80.263695      	82.17267       	81.36947       	80.99995       	77.9606        	78.10025       	80.71049       	79.98193       	80.30455       	80.9842        	77.34419       	80.9444        	80.50113       	81.93333       	77.94504       	92.08712       	92.23981       	87.58118       	92.19443       	92.33018       	92.44591       	89.7951        	92.19118       	92.33034       	92.43033       	90.3456        	92.23141       	92.40991       	92.56964       	92.27541       	92.20865       	92.38531       	92.55169       	92.71185       	71.38467       	92.36851       	92.5813        	92.618286      	87.72591       	92.542534      	92.722664      	90.076485      	92.171295      	92.33384       	92.40998       	85.39755       	92.21209       	92.35089       	84.35197       	92.46312       	92.63626       	77.490135      	79.127235      	79.73401       	81.36952       	80.676216      	77.63541       	79.7692        	88.89438       	92.503586      	82.49942       	92.414116      	92.60308       	81.20109       	92.45235       	92.595215      	88.31406       	92.4624        	92.63227       	92.67536       	86.823395      	92.55403       	92.65623       	88.22556       	92.55626       	79.899925      	79.36763       	81.16325       	79.928024      	82.31458       	80.87644       	80.63453       	80.87761       	82.15946       	83.56844       	86.68736       	86.65521       	
78.07499       	81.133156      	80.574455      	81.56292       	77.928345      	79.02536       	80.100365      	80.63429       	80.96805       	80.5192        	79.138336      	82.69806       	83.100044      	80.4776        	79.87226       	80.59534       	78.98354       	77.76334       	80.69659       	77.00253       	91.98895       	90.69175       	80.83459       	78.42097       	82.57764       	81.43627       	79.956505      	89.38129       	92.12335       	91.79945       	88.349785      	92.16927       	92.28584       	92.39697       	91.21216       	92.08387       	92.25404       	92.21275       	91.209694      	92.18452       	92.33567       	92.49274       	92.65396       	87.23651       	92.30215       	92.4793        	92.66718       	90.01632       	92.32525       	92.52369       	92.66185       	87.13754       	92.30461       	92.50293       	92.562386      	90.03322       	92.46872       	92.65687       	90.17847       	92.21876       	92.44552       	81.29334       	79.155106      	79.4868        	79.94486       	80.62111       	80.28158       	80.03179       	80.17865       	78.6079        	91.47599       	92.12354       	88.6322        	92.46591       	92.60316       	77.37525       	92.369736      	92.54877       	92.68926       	86.76858       	92.443214      	92.60209       	92.67665       	88.809166      	92.40732       	92.55288       	91.41521       	80.275024      	85.54736       	79.15667       	82.29873       	80.88011       	80.51146       	78.96596       	80.044655      	80.18486       	80.74065       	83.80761       	85.44656       	85.248024      	
78.640144      	80.90557       	79.43132       	79.65399       	77.102615      	76.31496       	80.18621       	78.796684      	80.20925       	81.52755       	81.90301       	81.33152       	81.092964      	80.197754      	81.18293       	79.11854       	91.99072       	92.00536       	77.66878       	80.82483       	80.049774      	77.690414      	81.20273       	77.773224      	77.13658       	79.12131       	82.98345       	80.554474      	91.857346      	92.168076      	92.261116      	83.73221       	92.03377       	92.19057       	92.33997       	91.48977       	92.07571       	92.24767       	92.41158       	88.881195      	92.16041       	92.343735      	92.49127       	92.53747       	87.400246      	92.38697       	92.578415      	92.75716       	78.215775      	92.26561       	92.4353        	92.5139        	86.86469       	92.39732       	92.58046       	92.73468       	88.757835      	92.37817       	92.56418       	88.968666      	92.30888       	92.513         	68.2408        	79.18965       	80.47296       	78.24772       	80.138824      	80.08509       	80.37387       	76.91438       	92.307976      	92.49879       	88.33164       	92.33445       	92.52802       	92.436935      	90.24053       	92.4588        	92.60889       	88.96274       	92.294235      	92.50487       	92.62117       	89.32388       	92.33826       	92.50677       	92.62276       	80.56511       	92.46516       	92.59308       	76.96941       	76.55078       	77.08291       	80.31269       	80.808975      	82.22059       	82.296265      	85.30523       	87.20454       	85.59819       	
78.49575       	79.84768       	92.03679       	57.230053      	92.00498       	87.476425      	78.62152       	77.658646      	79.58462       	79.64785       	81.77564       	81.11931       	82.15949       	80.26851       	80.64497       	75.86899       	92.019005      	88.21586       	91.94634       	89.63767       	80.949905      	80.87206       	78.6266        	92.01605       	78.324066      	77.74818       	78.79917       	81.528076      	78.919365      	92.01935       	92.174164      	92.270226      	92.08008       	85.244705      	92.03189       	92.13755       	92.20359       	84.07946       	92.218765      	92.36336       	92.30565       	90.06386       	92.34246       	92.54864       	92.705315      	89.72481       	92.226654      	92.449715      	92.61167       	91.22607       	92.248665      	92.46838       	92.64376       	65.333916      	92.21407       	92.36182       	91.890015      	77.90399       	92.28423       	90.44979       	90.352646      	92.231445      	76.78233       	81.63404       	83.39947       	83.31763       	92.18205       	89.31714       	92.4795        	92.6478        	88.44302       	92.41301       	92.58237       	92.54264       	86.97346       	92.409966      	92.58488       	92.654976      	89.94075       	92.458534      	92.61446       	92.61143       	89.34194       	92.53743       	92.66384       	88.971954      	92.30632       	92.46476       	92.33982       	89.17677       	92.40976       	91.33575       	81.40372       	79.89913       	80.39612       	80.18303       	81.76272       	81.66227       	86.723175      	83.156006      	
79.11269       	78.1772        	78.33189       	80.90398       	78.58372       	79.204605      	79.868454      	79.5944        	77.185646      	83.29734       	81.26644       	81.91149       	82.665245      	80.77349       	78.3037        	80.85037       	79.66878       	81.2477        	80.582054      	83.60187       	80.6726        	81.112434      	80.948364      	78.67947       	77.59268       	82.698265      	82.08096       	80.706924      	87.55406       	92.09508       	91.68475       	87.61331       	92.158455      	92.28683       	92.405106      	86.99731       	92.25604       	92.405624      	91.971634      	91.77264       	92.3176        	92.52667       	92.66948       	86.90279       	92.28658       	92.49317       	92.66786       	89.44622       	92.27647       	92.49569       	92.56353       	85.44553       	92.358086      	92.538605      	83.92799       	92.2434        	92.40198       	92.242195      	85.93117       	92.57008       	90.472275      	92.15806       	92.35202       	85.28936       	92.29988       	92.521126      	68.123436      	92.44598       	92.614204      	81.21531       	92.42277       	92.62081       	92.75738       	88.036896      	92.51605       	92.67359       	92.79273       	87.46748       	92.40953       	92.58519       	92.70499       	92.6369        	84.69801       	92.50584       	92.63918       	92.702736      	90.31751       	92.49705       	92.64133       	92.15275       	81.24284       	84.17809       	92.5058        	87.46996       	78.58625       	77.19872       	79.0647        	82.892746      	85.26101       	80.32268       	
78.87357       	92.077675      	89.83944       	91.990326      	84.851395      	92.01778       	57.51524       	76.74219       	78.405334      	80.50756       	83.03001       	80.42502       	80.94272       	83.30319       	77.823105      	79.97534       	81.18282       	79.23087       	79.47891       	91.990036      	89.05017       	91.78895       	88.34844       	91.392845      	88.658264      	91.2536        	78.28027       	82.16972       	77.3917        	82.34144       	75.76153       	92.030075      	92.19058       	92.3279        	92.349434      	84.65368       	92.1756        	92.34177       	92.25562       	89.27365       	92.30163       	92.499         	92.65265       	89.7973        	92.11767       	92.36803       	92.52454       	90.97977       	80.94743       	80.33897       	83.11561       	87.67036       	92.44454       	92.47932       	85.94217       	92.336006      	92.19889       	76.69859       	82.877365      	92.110535      	80.856415      	80.053566      	77.54067       	78.3081        	86.81438       	92.25479       	86.132385      	92.27904       	91.96317       	85.12417       	92.494354      	92.67403       	92.6938        	90.174644      	92.4326        	92.59762       	92.70476       	87.49699       	92.42497       	92.5757        	92.733444      	92.79325       	86.520775      	92.467186      	92.61693       	92.75203       	88.5211        	92.43619       	92.59277       	92.75911       	76.774376      	92.48888       	92.66758       	71.915955      	92.52155       	92.653946      	84.96335       	80.172585      	79.30596       	78.112114      	
80.92363       	91.98687       	57.70921       	82.54867       	91.966705      	60.32994       	79.33286       	79.16401       	78.64855       	80.81709       	81.05403       	81.716156      	81.46522       	81.27765       	75.340256      	80.41121       	79.01611       	80.72813       	80.893         	81.821335      	79.27535       	81.80804       	79.085335      	87.53001       	91.68252       	80.17924       	78.626915      	92.01652       	66.778275      	87.43573       	92.0689        	92.218666      	92.36506       	91.82979       	91.1899        	92.231544      	92.40076       	92.24386       	87.935616      	92.29787       	92.468254      	91.78545       	92.10189       	92.36155       	92.57121       	92.22604       	81.17951       	79.275345      	75.22917       	80.346306      	81.75539       	92.31989       	92.418465      	89.45658       	92.39087       	56.096825      	77.98482       	83.07476       	77.58083       	81.32606       	80.55117       	80.27512       	78.18687       	80.80352       	92.37125       	71.9115        	92.397675      	92.54993       	85.99652       	92.38752       	92.55808       	92.704025      	92.096504      	92.34643       	92.537926      	92.67646       	92.76764       	90.31671       	92.49852       	92.642006      	92.7968        	87.485916      	92.46066       	92.64937       	92.76621       	92.5047        	91.18448       	92.53296       	92.71269       	92.67606       	85.307686      	92.53988       	92.67281       	92.42321       	89.46563       	92.41254       	81.675064      	81.01408       	78.58253       	83.742325      	
84.9979        	86.316574      	91.834175      	80.6855        	91.969765      	58.95828       	78.49862       	78.75319       	80.11642       	77.75918       	81.8683        	81.20538       	80.81534       	79.14911       	83.84908       	92.00438       	77.59195       	80.924164      	81.32275       	81.024574      	75.26343       	89.89982       	90.95999       	86.01809       	91.62274       	79.258606      	79.92367       	82.94762       	74.41942       	83.81001       	84.37212       	81.232315      	75.24466       	92.05935       	92.22601       	92.42355       	92.509796      	88.305916      	92.305855      	92.46583       	92.099846      	88.483574      	92.41987       	92.60368       	90.57139       	92.18312       	92.40252       	92.55459       	88.610664      	92.35779       	92.38455       	85.229614      	92.40159       	90.09486       	80.343         	77.45666       	76.455826      	79.91524       	83.39901       	79.57315       	78.952576      	79.1338        	92.356766      	90.80006       	91.99204       	92.25463       	91.61594       	92.23658       	92.49775       	92.625534      	86.17677       	92.45765       	92.632416      	92.765526      	89.98285       	92.4006        	92.562355      	92.69317       	92.80178       	87.21325       	92.49166       	92.639534      	92.75569       	92.080284      	92.37021       	92.55671       	92.71018       	92.84488       	85.02802       	92.474335      	92.64738       	92.77369       	89.97616       	92.54694       	92.65327       	81.14702       	84.30619       	82.2051        	79.305405      	80.40759       	
86.419624      	90.27965       	89.86386       	80.55552       	91.841034      	78.26719       	80.98879       	79.81749       	80.40049       	78.77699       	82.16799       	79.181305      	81.36175       	91.83695       	61.010166      	78.864395      	80.35008       	78.536736      	81.26795       	80.11077       	78.64524       	88.2111        	91.133095      	76.9822        	82.42096       	79.59076       	91.84306       	91.99692       	77.7148        	82.64728       	83.752785      	83.66181       	78.78067       	91.95181       	92.1558        	87.428665      	92.066605      	92.29156       	92.47642       	91.55331       	92.09844       	92.32149       	92.530914      	90.5339        	92.024826      	92.42308       	92.58703       	86.79246       	92.33729       	92.51313       	84.94946       	92.32268       	92.4914        	90.12937       	92.38601       	90.51258       	92.28815       	92.4831        	82.83079       	89.65333       	92.44244       	86.97846       	92.373604      	92.22484       	89.06637       	92.48199       	91.88222       	90.894875      	92.491554      	92.5599        	85.74275       	92.494354      	92.63879       	92.7641        	87.91326       	92.386795      	92.55379       	92.70248       	92.81241       	79.800125      	92.46066       	92.62542       	92.76475       	92.83739       	89.70564       	92.51156       	92.680046      	92.819405      	91.450325      	92.42293       	92.59857       	92.75223       	87.99346       	92.41358       	92.57529       	92.47113       	85.86581       	92.396126      	92.49302       	92.537254      	
79.03964       	90.63001       	90.21338       	90.33686       	91.969376      	82.7968        	78.93351       	79.592636      	80.310585      	78.898026      	81.2027        	79.64301       	82.07171       	80.64985       	81.16813       	80.00259       	76.90251       	81.73931       	79.014656      	78.834656      	77.78708       	76.80397       	80.25681       	78.15658       	82.99102       	82.78605       	91.95264       	91.860016      	86.043625      	91.997086      	92.08563       	87.39611       	91.90791       	92.08537       	74.438644      	76.22498       	92.08218       	92.28688       	91.72244       	92.08725       	92.317665      	92.50208       	88.33277       	92.19044       	92.43459       	92.45726       	85.26046       	92.367615      	92.48732       	85.05405       	92.36855       	91.96234       	85.47672       	92.37315       	70.42875       	80.354774      	92.40871       	92.12125       	88.7229        	92.464134      	86.60082       	92.46051       	92.11501       	85.89713       	92.514275      	91.72389       	85.982506      	92.5207        	91.16678       	92.418434      	92.57656       	92.7063        	86.17002       	92.386696      	92.553444      	92.69774       	91.96183       	90.57609       	92.55493       	92.67654       	92.81255       	88.1132        	92.45078       	92.615166      	92.77548       	92.88465       	90.00497       	92.53335       	92.686905      	92.83003       	85.16054       	92.439255      	92.62676       	92.59704       	85.64291       	92.51042       	92.63044       	90.796974      	84.25652       	85.802826      	
85.92521       	87.41154       	91.82658       	86.38565       	91.79258       	75.68218       	79.789116      	80.88366       	80.550064      	80.46384       	79.844925      	78.654366      	82.05547       	80.002075      	80.24808       	78.91437       	79.139366      	80.68543       	91.92464       	77.095024      	78.40857       	81.72636       	80.48183       	78.295296      	80.26579       	84.79143       	92.003395      	87.96491       	91.8541        	92.0497        	90.60359       	91.913284      	92.11746       	92.19047       	81.935776      	88.365715      	92.264824      	92.085754      	81.782425      	92.09941       	92.23315       	91.49949       	92.11237       	92.354996      	92.42587       	85.27771       	92.355156      	92.4865        	88.226204      	92.38556       	92.44482       	85.8185        	92.352684      	91.148705      	80.9366        	76.65866       	92.30637       	92.44288       	88.33454       	92.36304       	92.289566      	88.424835      	92.42292       	92.38647       	85.250435      	92.49359       	92.550674      	85.220314      	92.326096      	92.44507       	91.82709       	92.3339        	92.53377       	92.66382       	92.68359       	86.99084       	92.46766       	92.61169       	92.75836       	91.526886      	92.38698       	92.56274       	92.73535       	92.86949       	89.74461       	92.474304      	92.666756      	92.8037        	92.707085      	87.46895       	92.5691        	92.73626       	88.86709       	92.44705       	92.60373       	92.72862       	89.97666       	88.92491       	92.41701       	92.50601       	
92.107         	92.04825       	89.53242       	91.97224       	91.04975       	78.66125       	75.635475      	81.63034       	79.31064       	80.052155      	81.236664      	79.634796      	80.36515       	81.3739        	79.68309       	81.681114      	78.1513        	79.815285      	78.60606       	79.76951       	80.209236      	82.80383       	79.52744       	79.781334      	88.216515      	91.996704      	92.010056      	84.95033       	91.97593       	92.05022       	88.80151       	92.05539       	92.253006      	83.58978       	92.0751        	92.27942       	89.82292       	80.55752       	92.230965      	92.3317        	86.065186      	92.33804       	92.45947       	66.05131       	92.25128       	92.46537       	88.330696      	92.30689       	92.52779       	79.33187       	92.23445       	92.411385      	85.19724       	92.313576      	92.4929        	90.75902       	92.25265       	92.4586        	90.940544      	92.24637       	92.42873       	91.593735      	92.24602       	92.44441       	91.74759       	92.319565      	92.51369       	92.3202        	90.235085      	92.4776        	92.62663       	92.6733        	88.94948       	92.423645      	92.59076       	92.735146      	82.55637       	92.37215       	92.534515      	92.73084       	92.81482       	89.6077        	92.459656      	92.618706      	92.801956      	92.73797       	92.40321       	92.57933       	92.74147       	92.6836        	88.00407       	92.58418       	92.75434       	79.08344       	92.487915      	92.62853       	92.7189        	44.616165      	87.1956        	92.4204        	
92.064514      	92.02717       	91.66989       	77.8594        	75.24994       	77.569885      	82.15814       	79.98283       	80.46276       	81.90189       	79.78447       	78.71641       	80.336624      	78.96603       	80.75544       	79.01419       	80.62064       	79.69783       	80.173744      	78.8923        	82.785324      	76.7861        	81.514015      	76.75998       	87.72051       	92.04091       	91.79364       	88.571754      	92.112114      	87.45514       	91.99635       	92.20779       	92.09385       	89.16597       	92.21745       	92.38846       	86.70637       	92.184074      	92.39012       	84.21151       	92.27066       	92.42968       	89.64868       	92.23475       	92.41271       	91.709305      	91.06222       	92.458565      	91.34015       	92.0748        	92.42639       	91.677055      	92.24555       	92.41931       	86.631256      	92.37923       	92.545204      	89.045006      	92.37376       	92.50337       	89.27028       	92.341156      	92.49161       	88.946724      	92.412575      	92.557205      	86.02905       	92.38915       	92.56181       	87.574036      	92.36952       	92.528786      	92.6724        	92.367836      	91.96816       	92.48223       	92.64731       	92.73882       	90.29437       	92.50496       	92.649414      	92.81942       	87.50322       	92.48253       	92.67381       	92.824135      	92.384636      	92.45586       	92.64736       	92.82144       	78.32389       	92.56455       	92.76124       	73.95314       	92.543655      	92.66918       	92.70579       	45.137962      	86.03005       	92.44153       	
92.082634      	92.06863       	78.08267       	78.545654      	80.265945      	79.12638       	80.703064      	79.54113       	78.820984      	78.71825       	81.776375      	79.56979       	78.807915      	80.73914       	80.11058       	82.08534       	78.83377       	80.33499       	81.1199        	77.856834      	79.93443       	80.11351       	79.96043       	75.24936       	91.974075      	92.115845      	86.02166       	91.99881       	91.9639        	88.95852       	92.16713       	92.12367       	86.320244      	92.221214      	92.380615      	85.82784       	92.257835      	92.414825      	89.63981       	92.26028       	92.34295       	87.19692       	92.35705       	92.29657       	86.16607       	92.412056      	92.46452       	89.480835      	92.411865      	92.56248       	90.09009       	92.42877       	92.52198       	89.46458       	92.46256       	92.59127       	86.83609       	92.41562       	92.58782       	80.94981       	92.368904      	92.49775       	87.09031       	92.3853        	92.57059       	90.75375       	92.337296      	92.49827       	92.43396       	88.79357       	92.47872       	92.6192        	92.6668        	88.52725       	92.40873       	92.53264       	92.5175        	87.61963       	92.49299       	92.637825      	92.749306      	90.05957       	92.435616      	92.586235      	92.70434       	91.43193       	92.446365      	92.64139       	92.81398       	83.52665       	92.56502       	92.72505       	83.69916       	92.54968       	92.7238        	87.85968       	92.39952       	92.50813       	92.573975      	92.412025      	
75.27358       	79.00238       	79.34638       	80.881905      	78.9069        	81.509285      	80.18543       	80.0756        	80.94631       	80.8716        	80.717674      	81.09213       	80.71488       	79.104385      	78.96037       	81.30028       	79.1387        	80.653755      	80.93032       	75.90623       	76.20355       	81.64749       	81.3393        	91.965576      	92.08668       	89.31628       	92.10693       	92.04392       	85.619965      	92.13867       	91.9712        	87.294075      	92.31557       	92.190605      	89.718544      	92.39972       	86.19186       	92.25086       	92.44087       	85.89055       	92.31335       	92.36217       	86.540855      	92.412094      	92.24882       	85.055405      	92.4222        	91.37521       	92.10815       	92.49322       	89.84172       	92.385956      	92.5392        	89.447495      	92.43415       	92.54789       	73.295235      	92.380844      	92.495         	87.64242       	92.3961        	92.55357       	89.78371       	92.43749       	92.60224       	88.58623       	92.247635      	92.37773       	92.3767        	88.7301        	92.45156       	92.61269       	92.04639       	92.34096       	92.51273       	92.686005      	92.43398       	89.88943       	92.531715      	92.73603       	92.86213       	84.849884      	92.50697       	92.70067       	92.84375       	92.67145       	92.37487       	92.62218       	92.80366       	88.74836       	92.5707        	92.72988       	91.390305      	92.49578       	92.66432       	92.68467       	90.150154      	92.38381       	92.44909       	92.5212        	
77.35514       	77.228714      	77.636925      	78.42008       	79.01207       	81.460365      	80.733604      	80.754196      	79.40435       	78.56343       	81.53353       	80.509674      	80.64479       	81.867004      	78.81087       	81.637314      	79.08205       	82.387184      	80.10898       	80.62298       	82.911095      	78.64065       	81.276405      	91.98184       	92.02753       	87.03137       	92.09062       	92.19207       	86.06451       	92.15222       	92.32427       	79.43537       	83.01774       	92.2282        	92.35666       	88.01039       	92.41245       	91.10043       	92.2035        	92.40374       	87.55679       	92.30243       	92.48281       	72.931206      	92.36929       	92.52157       	89.33917       	92.40383       	92.32675       	87.21069       	92.45242       	91.51014       	92.31928       	92.5064        	88.202484      	92.44576       	92.59433       	74.44576       	92.44191       	92.586235      	85.75517       	92.43459       	92.53587       	87.18          	92.53144       	92.59513       	85.35641       	92.46309       	92.562065      	87.21621       	92.38909       	92.53321       	85.865845      	92.43661       	92.62341       	92.77325       	73.35079       	92.407455      	92.59285       	92.786415      	92.72055       	88.76619       	92.56318       	92.762024      	92.914505      	83.47531       	92.56677       	92.77681       	92.790405      	86.17264       	92.69837       	92.82401       	86.5749        	92.66885       	92.77812       	87.85316       	92.384026      	92.489624      	92.41166       	80.748184      	
77.32023       	81.53198       	77.20514       	80.14169       	79.945076      	80.88129       	81.376976      	81.130936      	79.99836       	80.51193       	79.967224      	79.56037       	80.19155       	78.47279       	82.650375      	81.35765       	79.2591        	80.1839        	79.73706       	81.80467       	81.00342       	81.61465       	83.464195      	91.99166       	88.22077       	92.02001       	92.227264      	88.283516      	92.068085      	92.31434       	91.618965      	89.39927       	92.38616       	90.16024       	86.72746       	92.42505       	89.02476       	92.32087       	92.495834      	88.837685      	92.39537       	92.54382       	87.41069       	92.37021       	92.00159       	89.666824      	92.48096       	83.96849       	92.26957       	92.389915      	87.91106       	92.46692       	92.43838       	87.02718       	92.487         	92.12813       	88.799515      	92.51533       	92.572525      	87.63618       	92.527336      	91.75707       	87.610466      	92.57036       	77.511955      	92.49309       	92.59111       	86.41506       	92.455055      	90.88564       	92.3356        	92.53535       	92.06757       	91.265         	92.53458       	92.703156      	91.49986       	92.4176        	92.61625       	92.78761       	92.881615      	86.261856      	92.5444        	92.74784       	92.922844      	82.39562       	92.55677       	92.75554       	92.866554      	86.215866      	92.67074       	92.84059       	81.49507       	92.565926      	92.70448       	92.61453       	85.244545      	92.44926       	92.52927       	92.57022       	
91.79904       	80.056694      	76.75618       	78.26827       	76.26332       	78.135994      	81.420845      	74.86247       	80.02211       	80.267136      	80.26465       	78.71423       	81.18671       	81.78093       	79.28521       	79.14328       	82.256096      	78.98382       	79.43794       	82.96283       	81.92365       	79.95098       	79.51407       	80.66784       	77.59608       	80.37928       	91.72035       	91.789955      	85.51415       	91.68525       	91.787964      	86.53073       	92.020164      	92.08478       	88.8531        	92.182594      	85.775566      	92.104355      	92.02181       	86.883865      	92.07898       	91.784386      	87.71247       	92.17143       	88.56306       	92.09915       	92.1519        	87.623         	92.21899       	83.77539       	81.979774      	85.85858       	92.48568       	87.67184       	92.46799       	92.58555       	89.07612       	92.46662       	92.623566      	89.74782       	92.45984       	92.519516      	89.04829       	92.524864      	92.30429       	85.86036       	92.40412       	90.67086       	92.19638       	92.370224      	79.56774       	92.22928       	92.08978       	90.52563       	92.351456      	92.51593       	89.18101       	92.49626       	92.67256       	92.84559       	89.085945      	92.608055      	92.791885      	92.72623       	89.24559       	92.668434      	92.84403       	92.07754       	92.498215      	92.71294       	92.83547       	85.43518       	92.604034      	92.73065       	85.62452       	92.402794      	92.36781       	50.22049       	88.42157       	92.224625      	
46.54286       	92.01688       	85.94614       	91.979004      	88.26188       	80.17434       	78.71201       	78.61041       	78.309814      	80.51613       	76.2905        	78.4419        	79.35668       	81.402214      	80.37203       	79.36417       	80.40834       	78.54491       	82.26845       	81.95698       	81.351456      	82.26124       	78.14741       	80.696884      	79.31039       	82.32497       	92.17359       	90.361595      	80.83724       	85.84808       	92.2965        	92.457115      	87.23497       	92.406624      	92.52182       	85.41968       	92.44828       	84.25506       	92.394035      	92.25335       	87.73086       	92.48098       	91.825745      	91.28887       	92.489876      	89.81994       	92.42968       	91.54144       	91.24867       	92.505516      	89.89281       	92.40162       	88.482895      	92.36165       	92.52142       	83.56769       	92.370766      	92.5049        	92.575645      	86.33894       	92.50304       	92.620674      	85.08531       	92.49154       	92.6224        	46.415565      	92.42819       	92.55958       	87.908875      	92.418495      	91.03657       	91.53904       	73.84155       	92.39422       	92.59807       	88.55411       	92.4959        	92.65837       	92.5831        	89.61953       	92.68252       	92.80761       	89.887436      	92.285576      	92.46857       	83.45046       	92.56836       	92.761665      	92.13318       	92.36431       	92.66289       	90.700035      	92.38001       	92.24551       	78.8538        	90.26703       	92.01385       	86.20907       	92.32146       	92.40727       	
92.17203       	92.053474      	92.06873       	88.84082       	91.98053       	75.680565      	77.464134      	83.91025       	77.587364      	79.44739       	81.93158       	80.35566       	78.96066       	78.59236       	81.21229       	81.16912       	80.00586       	78.16426       	81.97347       	79.91017       	81.38148       	78.16245       	80.251335      	80.88189       	77.94595       	80.577835      	82.22919       	83.055504      	79.960945      	92.185234      	92.373924      	86.03945       	92.4209        	92.56258       	86.032425      	92.44828       	92.50799       	89.64766       	92.38011       	86.72472       	81.144966      	92.361694      	92.42214       	85.92643       	92.37347       	89.791306      	79.39342       	81.28182       	86.88632       	92.51539       	54.61844       	80.29096       	77.09905       	91.65977       	92.515686      	87.422035      	92.45524       	92.57744       	85.7191        	92.32253       	92.49902       	91.78292       	85.62502       	92.512924      	91.032295      	92.40919       	92.55706       	88.31626       	92.483025      	91.963         	80.95962       	81.03791       	77.73942       	78.13046       	78.56337       	76.89157       	82.90122       	92.62324       	92.77682       	86.43228       	92.57351       	92.7417        	86.72291       	92.58417       	92.77645       	89.902824      	92.64899       	92.23504       	89.28022       	92.694855      	71.626175      	76.9237        	78.91773       	81.55284       	79.032005      	77.753235      	76.908516      	78.86494       	78.94144       	78.66182       	
88.20715       	91.92487       	85.44092       	92.09725       	91.90179       	86.11101       	92.054756      	87.58769       	81.04852       	81.35603       	78.180305      	78.41974       	77.376816      	78.95553       	79.90051       	80.60699       	78.934494      	80.760376      	80.5675        	80.0077        	80.04232       	79.76877       	81.43508       	83.18768       	79.35963       	79.31426       	77.88241       	78.91713       	78.33786       	81.53609       	77.297714      	81.93306       	92.32347       	92.12698       	77.702126      	79.69537       	85.45598       	92.481346      	89.07166       	92.32992       	92.4468        	89.62805       	92.422714      	90.5851        	81.94702       	79.1924        	80.513596      	92.46727       	60.552055      	92.44668       	70.80471       	81.785645      	78.62099       	81.26928       	81.11105       	91.49303       	92.52821       	92.01467       	86.96113       	92.49738       	91.893875      	86.37334       	92.51352       	91.59568       	92.33133       	92.45057       	79.485016      	76.63838       	83.236565      	77.224594      	79.36291       	77.71089       	80.41183       	79.53443       	81.72773       	85.28516       	88.12771       	92.6534        	92.80305       	87.01788       	92.593956      	92.77982       	85.30866       	92.599525      	92.759636      	87.23895       	92.60562       	91.275215      	92.52302       	92.65988       	77.03218       	75.605286      	79.8501        	77.71375       	81.215485      	77.78316       	78.76407       	77.57199       	77.98946       	76.76621       	
92.05269       	91.70973       	92.02513       	92.19813       	92.18675       	88.938484      	92.1413        	91.66482       	86.56781       	92.15024       	74.3148        	78.61598       	81.31399       	77.51169       	80.60592       	79.32426       	80.09447       	78.922745      	77.43161       	80.88981       	81.30874       	83.433945      	80.969894      	80.24884       	80.3517        	80.22771       	79.48675       	81.55382       	77.86789       	81.332695      	80.92932       	81.39529       	87.301056      	92.43315       	81.47471       	78.30915       	78.62328       	78.89779       	80.88026       	92.45887       	88.7915        	92.39223       	92.52965       	87.20225       	92.41148       	89.49735       	82.63357       	88.05481       	92.457596      	76.18432       	80.45963       	80.20585       	80.52504       	81.663185      	76.57313       	92.33032       	92.47663       	92.33499       	87.25194       	92.53227       	91.84627       	91.768135      	91.90765       	81.871925      	92.374054      	92.14139       	85.936844      	81.70417       	78.33339       	79.82801       	79.97301       	80.9178        	77.26612       	80.499344      	78.129395      	78.64789       	92.47128       	92.67512       	88.217415      	92.53265       	92.710846      	91.738976      	92.380226      	92.72203       	92.24984       	88.21842       	92.67882       	49.252598      	92.56897       	92.60259       	81.59858       	77.770615      	79.311485      	76.628296      	80.97365       	81.96463       	79.87404       	78.87541       	78.90397       	74.65316       	
92.24752       	91.95421       	92.228935      	92.36513       	89.22293       	92.10224       	92.2791        	85.34587       	92.12875       	91.993515      	86.53536       	92.15672       	83.31885       	76.54208       	80.18794       	78.41513       	78.71165       	77.614784      	79.99983       	78.0392        	91.316345      	92.16653       	56.259487      	79.00267       	82.36893       	76.35465       	80.96204       	76.28942       	80.31178       	81.73227       	79.7351        	83.52831       	78.750786      	82.20413       	77.44483       	78.94536       	92.42407       	92.19039       	85.9201        	92.488464      	89.34907       	92.44419       	89.93334       	92.41059       	92.50175       	87.57096       	92.454926      	90.23124       	81.55487       	92.4491        	84.3114        	78.82291       	82.15469       	78.56188       	92.3511        	92.52354       	91.764305      	88.77645       	92.478584      	91.75926       	86.76987       	92.587776      	91.255         	92.40663       	92.57996       	89.8187        	92.47409       	82.951546      	79.90572       	92.463684      	80.04721       	77.64076       	80.92845       	86.536095      	92.588745      	69.8359        	92.57734       	92.73732       	85.870674      	92.61897       	92.82126       	81.22812       	92.599396      	92.78132       	89.67344       	92.63977       	92.79962       	86.1669        	92.6091        	92.35832       	86.28305       	92.67489       	77.05391       	77.36124       	78.560036      	80.84577       	80.47318       	78.961365      	73.79202       	76.93168       	
85.82593       	92.4236        	91.15596       	92.116425      	92.30302       	88.75457       	92.10956       	92.30035       	83.68079       	92.21928       	92.25174       	88.79675       	92.20784       	91.30051       	75.745544      	79.157555      	81.130516      	78.329926      	78.31171       	92.032585      	92.206825      	85.13103       	92.12716       	92.26368       	76.01096       	79.099205      	78.22515       	80.41107       	79.86374       	81.27855       	81.91086       	79.448685      	78.59852       	80.98999       	78.58261       	92.314865      	92.04758       	86.78482       	92.340454      	63.094616      	92.3109        	92.24337       	87.23779       	92.46751       	80.35683       	82.08175       	92.458176      	87.384674      	78.683174      	77.57687       	78.6897        	78.4007        	92.3423        	92.478516      	81.29719       	83.46975       	79.50557       	92.474815      	92.541466      	81.260345      	92.415436      	92.4125        	88.544846      	92.48983       	68.85995       	92.487816      	86.94924       	92.4765        	91.5212        	79.79606       	77.48284       	77.238335      	80.46339       	87.42898       	92.627106      	88.441605      	92.485435      	92.61492       	80.86791       	92.61797       	92.79962       	85.68443       	92.59558       	92.79509       	90.77983       	92.57409       	92.77021       	82.96851       	92.4937        	91.36765       	90.77          	92.63083       	74.45878       	77.450294      	78.59102       	77.193016      	78.20598       	80.21026       	77.82846       	74.71568       	
87.85496       	92.469986      	88.57412       	92.13495       	92.32279       	92.15251       	87.94662       	92.32997       	82.94776       	92.2922        	91.64768       	77.87982       	88.95925       	92.22108       	88.81307       	76.7414        	79.97289       	80.202065      	79.2251        	75.913445      	92.05009       	92.26388       	73.20522       	92.15455       	92.35096       	82.15228       	80.555824      	80.63135       	80.204025      	80.52755       	83.23766       	78.69037       	82.25108       	79.28314       	81.65151       	81.32966       	78.36483       	79.91736       	92.30651       	87.71147       	78.43657       	78.08112       	92.411835      	92.299995      	79.0977        	82.50743       	81.44821       	92.35565       	92.36915       	82.453636      	81.92836       	82.61433       	91.19909       	92.45608       	87.01307       	92.318825      	92.45083       	90.64482       	90.92449       	92.575226      	91.570656      	92.25717       	92.58991       	89.57654       	92.5213        	59.02228       	77.261246      	79.37804       	81.24606       	82.396225      	78.71798       	78.07647       	92.53272       	92.643196      	85.24898       	92.52796       	92.27395       	89.01089       	92.734276      	91.63401       	90.58386       	92.56822       	92.38022       	87.79266       	92.75173       	91.11268       	92.48682       	92.58988       	88.10424       	92.55072       	85.403404      	92.44684       	91.4184        	77.29989       	78.02225       	78.05405       	76.38286       	75.62981       	76.4875        	76.890564      	
92.47812       	92.361626      	92.50071       	74.55765       	92.247604      	92.42512       	77.6106        	80.453445      	81.81436       	91.95571       	92.46748       	85.9837        	92.27653       	92.024796      	83.23083       	78.3829        	79.68733       	76.96904       	78.84542       	92.25068       	92.11414       	86.26304       	92.316956      	90.749535      	90.54759       	92.33607       	92.28139       	81.056725      	80.87037       	77.25461       	80.67006       	80.649345      	82.66912       	78.501015      	75.80013       	92.43579       	92.42373       	88.02725       	92.44576       	86.61694       	92.42661       	92.37576       	89.37738       	92.45147       	89.476456      	92.09123       	92.20446       	77.55757       	92.199745      	92.407814      	79.38079       	83.41087       	77.81963       	79.10777       	79.53509       	92.35054       	92.50292       	90.42562       	92.38233       	92.58606       	90.454956      	90.74429       	92.560814      	77.25337       	79.47754       	80.05177       	81.54851       	77.67728       	81.94094       	80.96747       	78.04494       	84.22018       	78.534424      	84.3225        	92.72086       	88.99202       	92.65185       	92.80777       	85.24509       	92.58059       	92.757385      	70.88061       	92.6464        	92.81741       	87.877144      	92.61737       	92.77896       	81.577484      	92.688835      	92.724434      	86.00482       	92.67991       	83.30009       	92.53054       	91.05527       	80.462585      	75.57591       	78.401344      	75.68674       	74.74865       	
86.871086      	90.04234       	92.25697       	92.48056       	92.279625      	87.334114      	92.21189       	92.31407       	84.063354      	92.40339       	92.52206       	88.473564      	92.3349        	91.94099       	85.89334       	92.37681       	83.558174      	92.19197       	92.39579       	86.9993        	92.29154       	92.44668       	89.584175      	92.26388       	92.39935       	89.02698       	92.27781       	92.44257       	73.82218       	79.0495        	76.412254      	81.14882       	80.544365      	85.939735      	92.429695      	87.63408       	92.463264      	91.72274       	77.0598        	81.04044       	78.18159       	79.91856       	87.08564       	92.362625      	83.580536      	87.39897       	92.3132        	78.23057       	78.65884       	92.335724      	92.2664        	86.1394        	92.428215      	91.8226        	90.61501       	92.311966      	92.25291       	85.965996      	92.43802       	91.45053       	85.43829       	92.56203       	89.06762       	83.612305      	82.87498       	83.069855      	79.93028       	81.59297       	88.12008       	92.59556       	59.273216      	79.77804       	78.73469       	88.96192       	92.77757       	87.917305      	92.68229       	92.621155      	89.32427       	92.77077       	92.80244       	85.587776      	92.72905       	92.88477       	85.27778       	92.6583        	92.80651       	88.12814       	92.69525       	92.41455       	88.79869       	92.71307       	56.63046       	92.48518       	91.08761       	80.73075       	78.37106       	76.43314       	76.41614       	74.69116       	
92.41815       	86.09215       	92.479454      	92.54526       	89.9386        	92.385315      	92.53242       	85.599556      	92.3533        	92.549614      	89.182846      	92.31265       	92.45686       	74.61908       	92.29277       	92.15025       	85.642105      	92.3508        	83.952545      	92.196236      	92.33901       	85.20153       	92.23004       	92.41833       	83.93817       	92.21848       	92.41536       	91.094475      	78.74174       	82.40277       	79.75517       	78.198784      	81.31547       	78.24098       	78.71309       	92.39876       	92.08712       	78.81976       	82.12081       	78.31149       	82.29574       	77.963234      	81.409645      	80.38305       	85.23597       	92.314         	91.88824       	78.64094       	92.12227       	92.11289       	89.28475       	92.44916       	89.757324      	92.304306      	92.487274      	91.26535       	92.32544       	92.51262       	87.609825      	92.4139        	92.59855       	89.29247       	92.52078       	83.785484      	82.51483       	78.13192       	77.528625      	78.57329       	82.50139       	78.12108       	92.55185       	78.90433       	92.61995       	91.40435       	92.67824       	92.8027        	87.03024       	92.78044       	91.31685       	92.65432       	92.82036       	92.571754      	87.89891       	92.780365      	92.867065      	85.45665       	92.726105      	92.85542       	85.99605       	92.72253       	92.595566      	89.265114      	92.49849       	84.79897       	92.6059        	91.379456      	89.59098       	91.91062       	74.54485       	75.33181       	
92.55999       	92.45434       	92.57405       	85.06907       	92.37855       	92.54527       	91.15511       	90.49696       	92.44958       	92.54373       	87.52786       	92.12049       	92.00571       	89.22016       	92.39807       	78.34736       	87.97536       	92.426125      	81.5763        	92.21745       	92.381546      	85.62211       	92.23827       	92.35884       	67.43788       	92.24699       	92.39734       	78.6708        	79.23901       	77.39931       	80.5505        	78.94362       	81.5614        	78.48749       	77.2064        	81.47393       	77.580124      	87.66709       	92.374695      	85.9361        	80.393166      	79.71434       	81.46302       	92.4152        	89.4471        	92.39735       	88.21701       	92.338326      	90.38458       	92.30896       	92.50715       	84.20543       	92.357086      	92.53432       	83.86843       	92.255875      	92.45945       	82.22348       	92.41361       	92.568504      	89.14738       	92.47304       	83.02049       	80.842926      	78.00055       	80.4189        	79.45112       	80.13349       	78.86117       	79.94284       	80.60651       	77.99438       	81.88752       	91.41469       	92.75806       	88.9226        	92.76576       	87.71261       	92.47694       	92.6228        	83.98993       	92.614685      	92.77756       	91.462         	92.3936        	92.80322       	92.19529       	91.31851       	92.81299       	89.40863       	92.73677       	92.56255       	90.01931       	91.92122       	87.80037       	92.432465      	75.20294       	72.83034       	74.61762       	73.304436      	
92.49784       	90.26157       	92.47457       	92.57455       	87.16062       	92.36108       	92.54581       	91.22716       	92.29519       	92.45333       	91.708206      	89.20243       	91.94149       	87.46819       	92.28448       	77.57531       	79.19101       	92.30607       	92.30607       	86.914154      	92.37337       	92.20604       	89.8624        	92.23314       	90.363304      	92.25729       	92.39609       	91.133354      	82.57431       	78.79467       	83.03037       	81.458496      	77.892525      	79.499344      	77.42702       	79.59063       	91.17756       	92.33378       	80.54474       	82.57612       	79.58468       	92.043724      	90.81627       	90.95528       	92.27557       	76.52173       	90.45573       	92.40692       	86.69882       	92.40664       	92.24694       	86.2647        	92.46508       	92.541466      	88.94155       	92.470764      	92.456535      	87.21825       	92.53655       	83.51812       	92.47086       	92.415955      	81.49557       	78.77109       	78.73999       	78.546684      	79.523056      	80.266624      	78.756485      	79.40732       	80.714195      	79.27018       	79.863594      	81.04426       	78.517395      	92.66791       	92.81078       	89.39196       	92.76203       	92.584656      	85.203514      	92.73924       	92.66805       	85.70526       	92.444016      	92.452675      	88.41215       	92.75885       	92.75895       	87.132385      	92.52924       	91.89486       	85.66405       	92.00144       	90.09169       	92.58943       	77.94516       	76.41906       	74.29693       	72.39177       	
85.91249       	92.55056       	85.45574       	92.33292       	92.501015      	92.30022       	86.04147       	92.44725       	92.34593       	86.475         	81.398636      	82.69779       	82.72569       	92.39674       	78.72915       	80.84594       	78.49848       	78.60192       	81.37359       	92.36191       	91.01009       	92.19578       	92.42868       	71.28796       	92.32138       	92.46005       	76.048256      	92.329216      	92.45217       	77.6084        	76.8446        	79.325584      	80.69724       	82.53407       	80.733635      	76.755325      	82.88334       	82.416084      	80.73989       	78.94431       	79.96241       	82.27767       	79.90282       	79.721855      	79.10085       	82.10193       	86.90099       	92.46553       	88.89772       	91.97827       	91.98535       	87.52582       	92.45716       	91.75845       	86.92909       	92.43442       	90.03159       	92.459785      	92.64761       	86.89798       	92.37791       	90.2558        	80.73469       	77.50526       	81.360374      	79.85305       	83.47613       	76.76938       	79.16284       	79.07845       	79.37986       	79.21475       	79.53234       	79.87757       	83.10341       	79.144394      	88.59667       	92.80163       	82.848854      	92.604774      	92.7175        	86.95155       	92.51908       	90.97087       	92.60788       	92.70083       	89.57875       	92.41555       	60.32185       	79.03981       	81.52103       	79.90692       	78.629486      	78.35256       	88.149536      	92.610794      	88.64804       	88.05043       	92.46334       	52.315567      	
92.26047       	78.312096      	92.31001       	92.4967        	92.21149       	88.28569       	92.44498       	92.34249       	89.45638       	92.41714       	82.88107       	77.61681       	80.90987       	92.386116      	76.088684      	76.81941       	80.46234       	92.393326      	87.27651       	92.35892       	92.031265      	89.27893       	92.39853       	90.11829       	92.26269       	92.40223       	89.835045      	92.29874       	92.40939       	77.572716      	79.89679       	78.076744      	78.30242       	80.980896      	80.63146       	80.27192       	82.79603       	79.82049       	77.71391       	79.13492       	78.64331       	79.16821       	79.20202       	80.10264       	79.09215       	78.41239       	92.36469       	92.53724       	86.94982       	92.46181       	92.46026       	85.66019       	92.52642       	92.64726       	89.462006      	92.55402       	92.7059        	87.35856       	92.59205       	92.20669       	86.96488       	92.614586      	76.424614      	78.27436       	77.162224      	76.798904      	83.08623       	82.08201       	80.20038       	80.16829       	78.87339       	80.12889       	80.7059        	79.153595      	81.10684       	86.58999       	92.74213       	88.85067       	92.46905       	92.58768       	89.82072       	92.69716       	92.04316       	89.733665      	92.72314       	81.94124       	92.7042        	92.73355       	86.39834       	77.53249       	78.56387       	80.03677       	79.26659       	76.36587       	79.50942       	92.51345       	91.276474      	86.79647       	92.45128       	50.245926      	
92.39837       	88.28474       	92.38182       	92.531364      	92.284386      	88.58294       	92.419235      	92.33559       	87.243225      	92.42749       	82.33134       	92.332245      	92.408104      	81.28337       	77.14812       	78.391106      	80.29462       	92.18387       	85.826126      	92.29191       	92.43648       	85.493355      	92.34384       	92.46916       	86.656555      	92.28538       	92.425476      	89.03756       	92.224976      	92.31591       	84.75136       	79.18091       	92.31661       	77.21896       	79.56889       	79.96542       	79.59662       	81.2613        	79.56993       	80.97512       	77.582886      	79.76563       	79.47596       	77.706825      	92.340004      	91.94296       	88.285576      	92.46307       	91.120735      	92.34187       	92.550026      	76.16876       	92.40277       	92.62978       	71.844406      	92.49775       	92.67833       	88.21358       	92.6062        	89.779564      	92.55541       	92.24254       	81.21082       	78.72471       	78.02973       	79.32846       	81.27681       	80.09968       	82.122856      	79.4784        	79.436646      	77.95437       	80.70599       	83.76374       	77.3545        	85.657166      	92.71481       	89.47083       	92.53325       	92.70788       	85.91365       	92.3656        	92.22703       	86.36777       	92.77196       	89.80173       	92.68181       	92.77467       	78.009224      	79.74432       	81.405655      	78.08281       	79.53437       	92.73413       	85.36164       	86.44506       	92.26533       	53.215355      	89.472084      	91.83826       	
85.56479       	92.49772       	88.1857        	92.39984       	92.56249       	78.28162       	92.34735       	92.49178       	87.4846        	92.373535      	92.46551       	87.207016      	92.38843       	76.74689       	77.67384       	79.4446        	79.8813        	79.35752       	88.72031       	92.46214       	87.77877       	92.24367       	92.37386       	92.17694       	89.95714       	92.261696      	92.30916       	85.98563       	92.41253       	89.6672        	84.32045       	80.74058       	83.17451       	89.06127       	91.67176       	79.64206       	76.90641       	79.58781       	78.99568       	82.08159       	79.98847       	79.31134       	85.68378       	91.15204       	77.57925       	90.007095      	92.261345      	80.51294       	92.41125       	92.57025       	87.26136       	92.450096      	91.778946      	89.59504       	92.575905      	79.77978       	78.009796      	90.611015      	92.59664       	88.370125      	92.57987       	89.632095      	92.65309       	78.28406       	80.43369       	81.49374       	79.55117       	80.78609       	79.75111       	78.92443       	79.529755      	80.07331       	79.85273       	80.14074       	89.74867       	92.510666      	89.73844       	92.751724      	81.44225       	92.63562       	92.60527       	85.43904       	92.750145      	91.30095       	92.3724        	92.46521       	83.24851       	78.52731       	81.50374       	77.661995      	77.96767       	78.64232       	80.919464      	79.12853       	80.73855       	92.441216      	88.797455      	86.58085       	92.08959       	55.770023      	
87.261185      	92.51025       	91.35542       	92.29291       	92.4488        	92.58179       	85.70027       	92.3826        	91.89286       	87.7602        	73.86514       	76.226814      	79.63945       	76.69078       	79.72999       	78.80993       	79.83958       	78.82382       	91.921524      	91.79293       	86.02763       	91.94799       	91.939285      	81.59281       	91.85208       	91.93058       	91.883514      	87.32752       	92.05918       	90.90395       	88.5026        	79.64436       	78.04533       	82.33583       	91.85416       	86.42831       	79.65767       	81.031334      	77.52687       	81.36689       	80.87424       	85.05093       	79.01798       	76.68123       	79.44145       	91.70203       	91.666794      	87.15052       	91.91578       	85.485054      	91.95514       	91.892334      	88.10891       	92.41883       	91.88408       	83.21805       	77.809494      	81.68253       	84.3934        	91.430115      	87.16978       	91.44279       	81.01865       	78.23539       	80.017235      	80.0259        	78.37579       	82.44269       	81.001335      	80.629         	77.293076      	81.24629       	79.4556        	81.18449       	77.48616       	76.82204       	92.62398       	92.483086      	89.70739       	92.72323       	85.969635      	92.59426       	92.62402       	86.28496       	79.962845      	79.395905      	79.55933       	81.87436       	78.60335       	80.933136      	80.0669        	92.76443       	88.83773       	91.68437       	91.93196       	87.01923       	92.28069       	86.95768       	91.0771        	56.297512      	
88.446465      	92.462975      	92.48606       	85.84862       	92.40257       	92.5074        	86.52169       	92.3912        	92.41263       	76.415565      	79.09604       	77.37398       	80.39638       	81.49894       	76.8798        	80.31702       	88.95527       	91.32595       	79.337685      	92.33818       	80.9936        	92.30609       	92.4535        	92.57398       	71.41381       	92.37087       	92.52615       	91.65279       	86.791275      	92.44213       	87.67953       	79.03308       	92.381996      	90.487236      	92.20079       	87.26207       	78.86073       	80.46261       	80.75905       	83.5521        	78.38999       	79.31674       	78.523865      	81.11231       	76.7829        	79.773         	92.237015      	70.82381       	92.48637       	90.898186      	92.46517       	92.62458       	87.02531       	92.633484      	70.51681       	76.280815      	79.02149       	81.32612       	79.35197       	79.30247       	80.22588       	77.40802       	79.24467       	75.9348        	80.65651       	79.40359       	79.39359       	80.836205      	80.65819       	79.1718        	80.19081       	79.33075       	80.21033       	80.30286       	78.107765      	75.987656      	88.87793       	92.69727       	88.22339       	92.53673       	92.60159       	86.388374      	92.47444       	82.25112       	79.478195      	81.742455      	80.18778       	79.059         	82.60051       	78.671555      	79.43083       	82.93939       	92.797104      	89.503136      	92.23022       	86.814316      	88.53503       	73.4912        	69.534325      	73.09264       	
92.32674       	92.53453       	86.08807       	92.38915       	92.4967        	85.61506       	92.3852        	92.460846      	85.231         	92.39175       	89.05919       	80.45004       	83.282616      	79.42801       	80.8645        	81.60777       	78.889984      	80.89927       	79.11208       	77.43708       	92.380745      	92.513435      	92.282974      	89.34606       	92.40802       	92.56224       	90.161415      	92.367065      	92.52631       	92.52774       	87.26798       	92.44613       	87.17442       	92.339714      	91.09489       	91.06519       	92.37348       	85.55148       	79.32213       	81.24622       	92.34549       	82.21564       	88.50937       	89.473694      	79.184494      	79.90668       	78.69333       	92.39312       	92.569244      	87.41791       	92.61496       	84.25097       	78.964165      	75.59934       	92.61992       	90.543526      	80.75438       	92.58659       	79.11989       	76.716866      	84.956535      	79.97279       	79.976166      	76.16465       	80.34339       	78.537636      	80.98485       	79.00674       	76.70346       	79.951         	78.207954      	81.4149        	79.21659       	80.195786      	80.99674       	78.67816       	79.92287       	81.93833       	78.140755      	78.521454      	78.15421       	81.60816       	78.45831       	81.43606       	78.24079       	77.86814       	78.93541       	83.01384       	79.158775      	81.034294      	92.729774      	87.357506      	81.64709       	92.48316       	86.83689       	92.00345       	87.77021       	92.18033       	74.80795       	72.36208       	
92.45814       	92.563866      	85.93423       	92.383064      	92.49981       	91.13503       	92.26672       	92.41931       	91.72627       	81.78745       	76.6579        	82.900696      	80.8357        	78.985405      	79.88582       	78.85449       	92.28639       	92.158295      	88.99358       	92.41561       	92.55548       	90.09214       	92.31969       	92.4611        	92.60724       	88.03365       	92.03806       	92.19271       	92.217445      	85.455185      	92.06974       	92.17297       	85.15628       	91.997055      	85.388756      	76.55211       	92.09228       	91.47447       	80.77596       	79.6655        	92.43069       	60.30887       	80.496895      	84.413666      	78.92076       	79.17451       	77.37115       	80.92153       	91.66954       	92.2843        	80.30079       	76.778534      	79.96765       	79.20862       	81.939835      	76.58919       	78.066605      	79.972404      	80.99214       	82.55059       	76.76391       	79.68896       	80.262596      	79.94389       	80.03362       	78.53073       	80.93977       	81.18161       	79.69995       	79.46045       	79.6785        	80.27496       	79.71871       	78.84831       	79.657906      	80.06042       	79.98531       	80.89793       	79.48261       	84.366394      	79.02349       	82.45406       	76.687256      	81.42591       	79.08499       	78.36079       	82.04623       	81.736725      	82.44173       	81.315346      	79.56206       	78.7704        	77.089516      	89.28235       	87.2587        	87.5172        	60.011196      	88.95591       	55.700947      	74.59805       	
92.49796       	92.27971       	90.21279       	92.403755      	92.526924      	90.495415      	92.16162       	92.389755      	90.182526      	79.981964      	76.35833       	80.0722        	77.10215       	75.296326      	80.28138       	80.94527       	82.04542       	81.4155        	78.056656      	80.90269       	92.3825        	92.52568       	92.46401       	85.184326      	92.436035      	92.59194       	91.70675       	91.60039       	92.56355       	92.6984        	88.97151       	92.43553       	92.0346        	85.63495       	92.51457       	76.6538        	92.27134       	92.08139       	86.59232       	92.463         	87.13766       	92.51544       	56.2607        	79.37744       	82.06524       	78.799866      	78.59102       	78.922264      	80.31902       	92.615265      	73.40557       	77.09757       	82.57447       	82.64528       	78.96439       	79.4826        	75.854996      	79.195564      	80.839905      	77.04286       	79.72751       	77.502205      	80.90751       	80.756065      	75.02884       	79.39208       	81.15906       	81.007324      	78.76998       	78.96155       	81.796005      	80.787315      	77.861206      	81.16643       	80.70003       	82.49668       	80.345406      	80.22531       	81.30214       	77.58931       	81.449066      	78.6093        	78.18898       	82.748375      	81.076485      	81.271225      	81.37988       	80.9936        	82.69074       	79.81765       	80.612236      	79.93482       	80.19992       	76.154335      	85.199974      	84.62301       	86.86142       	55.984013      	78.36278       	80.284966      	
90.27043       	92.56119       	92.66341       	92.53526       	86.574135      	92.42683       	92.5326        	92.51867       	85.83769       	92.368454      	92.45103       	80.18017       	78.54752       	80.01277       	77.254906      	79.88306       	79.69611       	78.64978       	81.45252       	86.68288       	92.42771       	92.601326      	88.74397       	92.28327       	92.45095       	92.59593       	77.50382       	92.46344       	92.63296       	92.46385       	89.39111       	92.52803       	91.22962       	92.42148       	92.58641       	89.073135      	92.55169       	92.06961       	86.91743       	92.56071       	62.039032      	80.2769        	88.468575      	91.13261       	81.524086      	80.51805       	81.61932       	80.88728       	80.24973       	81.87871       	80.0369        	80.24796       	82.55564       	79.703926      	78.803925      	79.8474        	80.09685       	80.002975      	80.44528       	78.11533       	82.631485      	80.13289       	80.08352       	79.55904       	79.91952       	80.49955       	80.03156       	81.34621       	80.42283       	81.204         	80.373566      	80.15894       	80.60109       	81.69496       	80.22403       	83.60898       	80.69962       	80.42564       	79.25015       	82.36521       	79.15375       	78.95354       	82.22449       	82.212296      	80.93918       	81.49031       	80.40515       	83.31906       	80.63015       	81.21907       	78.630066      	79.79056       	80.809525      	81.288795      	78.19609       	76.1679        	73.78295       	75.20056       	78.22962       	78.698685      	
92.70007       	92.380135      	92.53448       	92.63742       	92.740295      	87.92727       	92.348885      	92.46828       	92.59604       	92.28171       	85.639435      	92.3636        	92.49128       	89.049         	92.32385       	92.45364       	84.02646       	92.307816      	92.42897       	89.685074      	92.3439        	92.51811       	92.46006       	90.24798       	92.42411       	92.61615       	91.97754       	92.323944      	92.58054       	92.732605      	78.498634      	92.4896        	92.578384      	86.91483       	92.59596       	87.58089       	92.5016        	92.452446      	86.56031       	92.326004      	85.56742       	92.50496       	86.12247       	78.0024        	80.09583       	79.07039       	80.44469       	80.3653        	80.29208       	80.29644       	78.35672       	79.12273       	77.59104       	80.73261       	78.65847       	81.78792       	80.82659       	79.42232       	81.12489       	78.60194       	79.33444       	81.08764       	80.39588       	80.329895      	79.110916      	81.18852       	77.32263       	80.66864       	79.938644      	79.8059        	79.705154      	82.27494       	79.855354      	80.436035      	80.86577       	79.869         	81.21004       	79.42302       	80.63066       	80.948074      	81.425026      	81.87403       	80.9101        	80.77657       	80.76783       	81.549164      	81.06347       	81.91491       	80.34955       	80.71547       	78.5211        	80.348236      	80.49089       	78.80598       	82.60618       	76.18639       	72.86441       	77.69593       	80.32673       	78.207954      	
92.479515      	92.69628       	92.666626      	86.28329       	92.392044      	92.54278       	92.650085      	91.97183       	92.26942       	92.41804       	92.54889       	92.61728       	85.24824       	92.33943       	92.502014      	92.63508       	81.26699       	92.3344        	92.49349       	92.6558        	75.99347       	92.32934       	92.50232       	92.680885      	88.90923       	92.45879       	92.63337       	92.71661       	86.153564      	92.392685      	92.42117       	92.56494       	89.51818       	92.44677       	91.80919       	92.52551       	92.71416       	84.77027       	92.27047       	92.39211       	86.91902       	92.65221       	84.26132       	80.7019        	79.07033       	78.52151       	79.72955       	78.9274        	79.87525       	81.37115       	78.067924      	79.52378       	75.55176       	79.3386        	81.34482       	81.46766       	81.452415      	80.149605      	79.61459       	79.99525       	81.45276       	81.05702       	80.568085      	79.6203        	78.86789       	78.68139       	82.752556      	79.68412       	80.08328       	80.72939       	80.31115       	80.525215      	81.610374      	79.56112       	80.190025      	81.56579       	80.37484       	79.85204       	79.560036      	81.53626       	81.31805       	79.57577       	80.71108       	80.623665      	82.78344       	81.9136        	80.77547       	79.23721       	78.62581       	80.303375      	79.86334       	79.36711       	91.99688       	79.50816       	77.20945       	75.92792       	71.230225      	78.805176      	80.774086      	81.07933       	
92.46387       	92.724945      	92.78232       	86.474365      	92.39173       	92.53963       	92.66532       	92.7478        	89.04862       	92.33427       	92.498886      	92.64026       	90.892456      	92.2369        	92.41194       	92.5793        	84.09319       	92.257126      	92.43793       	92.64088       	91.54043       	92.29722       	92.513596      	92.64539       	88.6986        	92.37365       	92.60287       	92.789215      	80.596375      	92.556725      	92.75155       	92.87285       	89.18122       	92.61608       	91.84528       	81.09298       	92.53315       	92.56084       	86.192314      	92.47891       	71.91173       	82.60655       	77.04472       	77.21381       	78.17367       	82.21689       	80.07097       	81.2673        	79.38661       	81.11264       	76.066315      	92.483505      	79.75839       	78.475044      	80.49058       	77.58631       	77.3355        	79.94801       	79.88083       	79.54556       	80.77299       	80.36306       	80.25406       	79.75711       	78.7228        	81.350624      	79.31226       	80.17858       	79.36585       	80.34201       	79.64261       	81.6985        	79.99232       	79.451294      	80.78036       	79.96645       	81.575485      	80.60917       	79.9643        	79.90924       	81.57504       	79.09138       	82.56056       	80.076096      	80.81414       	82.4067        	81.059326      	80.16736       	81.65082       	79.69783       	81.510635      	79.327835      	80.23659       	78.21871       	75.94513       	78.94992       	74.60878       	73.771164      	78.95968       	81.07739       	
49.42458       	92.47388       	92.61973       	92.75957       	88.91531       	92.23582       	92.29052       	92.37044       	92.41595       	86.84637       	92.24041       	92.432594      	92.60611       	92.754456      	81.60334       	92.29615       	92.472664      	92.641945      	92.757095      	89.86394       	92.41193       	92.59116       	92.78097       	82.58334       	92.425064      	92.64277       	92.805695      	87.95202       	92.57101       	92.77791       	92.83188       	80.15793       	92.24793       	92.47663       	88.52454       	92.22006       	92.4648        	86.69937       	92.40015       	89.736015      	92.362434      	91.46348       	80.21244       	80.925735      	79.531876      	79.17579       	81.728584      	78.47793       	79.24355       	79.02322       	79.654816      	82.694496      	78.66078       	80.31678       	78.52303       	81.7012        	78.543495      	81.14165       	81.1207        	80.388824      	80.03543       	81.96528       	80.46988       	80.273735      	80.669205      	79.27467       	80.43124       	81.27983       	80.12926       	80.493484      	79.7647        	82.14322       	80.63949       	81.3592        	79.22732       	79.50313       	79.78684       	78.933044      	80.69035       	77.256355      	80.95826       	80.03804       	80.961395      	81.29662       	80.782555      	81.002525      	79.561356      	81.37921       	81.466606      	80.328156      	80.53685       	76.8331        	76.11551       	76.76006       	79.72182       	80.09214       	79.12054       	75.48812       	76.53103       	76.34046       	
92.46777       	92.455666      	92.59149       	92.735535      	92.76504       	89.39          	92.37976       	92.54543       	92.702774      	92.72728       	89.31198       	92.375946      	92.52945       	92.691154      	92.17092       	85.91808       	92.41899       	92.601364      	92.77062       	75.004166      	92.370056      	92.58293       	92.74278       	90.06305       	92.47295       	92.65533       	92.813034      	88.15275       	92.596954      	92.78774       	92.94246       	86.42772       	92.56337       	92.618645      	82.35555       	79.97447       	77.46259       	92.645905      	91.2638        	90.53316       	91.76776       	91.75445       	90.790115      	82.03719       	80.41208       	82.26351       	77.680374      	76.698074      	80.30921       	80.300415      	77.21597       	79.87029       	77.035545      	78.47443       	79.14563       	82.62656       	82.19229       	81.265114      	78.77355       	80.24726       	81.14686       	81.08841       	80.53398       	81.88616       	79.67665       	80.577995      	80.85841       	79.825516      	80.269936      	80.31924       	82.833405      	79.61599       	80.661865      	81.13548       	80.62395       	78.41804       	81.51778       	78.318634      	78.49004       	80.59211       	80.84257       	78.639694      	82.03669       	78.75963       	74.90484       	76.696205      	78.78566       	79.51635       	80.492256      	78.57791       	77.726715      	79.24671       	79.71407       	79.70151       	80.41593       	79.465385      	77.910805      	79.224815      	77.84715       	78.4377        	
92.95175       	92.49425       	92.66709       	92.80799       	92.53895       	91.62343       	92.453285      	92.62113       	92.75606       	92.60438       	84.54248       	92.37444       	92.56244       	92.74061       	92.74072       	89.493645      	92.41308       	92.61039       	92.78536       	91.33438       	92.35694       	92.55136       	92.72684       	91.25335       	92.45869       	92.65125       	92.79369       	87.58257       	92.59145       	92.79885       	92.910385      	88.500145      	92.5885        	92.72621       	86.82555       	92.67618       	92.387825      	81.79709       	92.66806       	92.046364      	80.877         	92.63177       	90.73032       	82.36954       	80.897766      	78.77349       	80.23004       	83.29724       	79.433266      	80.915215      	80.135124      	81.10451       	79.978065      	82.04125       	80.622986      	77.61984       	81.16197       	77.56016       	81.5219        	80.1111        	79.96899       	81.36388       	80.383575      	80.917114      	80.45656       	81.224655      	80.71445       	80.89921       	80.04218       	80.46144       	79.442535      	81.03673       	80.162224      	79.86928       	81.36773       	79.966354      	80.00034       	80.95492       	78.86426       	79.99475       	79.25699       	82.18058       	81.15985       	77.254234      	77.14947       	79.35032       	78.96232       	80.540794      	77.81005       	80.11543       	79.554405      	79.4837        	78.484024      	80.573166      	79.84809       	79.31169       	80.91879       	78.11044       	76.63831       	81.32995       	
92.51401       	92.829895      	92.97527       	72.17662       	92.4166        	92.58099       	92.74521       	92.894295      	89.25289       	92.34515       	92.556114      	92.72892       	92.89588       	90.29138       	92.2943        	92.50331       	92.68592       	92.85462       	91.53529       	92.25424       	92.50172       	92.67286       	92.74787       	87.58611       	92.47072       	92.63828       	92.81044       	88.12813       	92.531006      	92.758156      	92.916855      	92.998116      	88.06473       	92.63687       	92.775764      	87.265755      	92.67298       	87.77639       	92.53368       	91.56516       	79.18763       	77.9089        	80.304405      	82.22665       	81.67192       	81.15747       	80.175575      	79.82444       	78.00136       	82.2207        	80.09673       	80.77379       	81.58985       	80.852615      	81.126884      	79.22592       	82.37629       	81.07711       	80.14815       	80.05576       	80.25429       	81.131226      	79.832855      	81.480804      	81.41215       	80.53632       	81.66673       	79.77367       	80.67811       	79.8333        	79.83308       	80.382095      	80.17444       	81.11948       	81.390724      	80.39473       	80.296936      	80.47479       	80.198456      	81.6369        	79.81745       	79.2164        	78.23031       	77.73483       	77.794426      	79.118904      	79.94791       	82.437325      	76.444664      	80.99454       	79.20223       	77.22169       	79.313126      	79.19249       	77.81244       	80.79559       	75.953575      	76.70235       	77.22736       	78.43557       	
92.7898        	75.890495      	92.47728       	92.6564        	92.84679       	92.938484      	88.87542       	92.329216      	92.52604       	92.690865      	92.77958       	74.62359       	92.31732       	92.51509       	92.67014       	92.83612       	79.414604      	92.38523       	92.60066       	92.78561       	92.92995       	87.879776      	92.495514      	92.699814      	92.86684       	87.820206      	92.58405       	92.76716       	92.936195      	92.69955       	89.839134      	92.675766      	92.83519       	92.916794      	88.96592       	92.710266      	92.85576       	84.18126       	92.56327       	92.499466      	78.691376      	92.64779       	83.62065       	78.76164       	81.08863       	75.72508       	75.208084      	78.567566      	79.953125      	79.372284      	84.11116       	80.30536       	79.95399       	80.503         	79.97915       	78.90965       	76.69398       	79.40606       	79.434586      	80.54036       	79.731384      	78.385056      	81.7151        	79.55953       	80.53357       	79.5781        	80.72087       	80.92321       	77.86648       	80.38188       	80.05169       	80.59706       	79.14893       	79.470924      	80.23862       	79.401955      	80.39132       	80.09466       	79.29449       	81.24983       	79.65672       	81.591095      	80.059715      	80.636406      	80.33751       	79.16905       	79.4399        	80.60672       	82.05667       	79.75836       	80.3001        	77.216034      	81.83862       	78.74295       	77.96308       	88.87641       	92.47182       	58.134098      	77.41703       	76.95945       	
88.152756      	92.74737       	92.904854      	92.98976       	89.81802       	92.50426       	92.68625       	92.817474      	92.846146      	86.12361       	92.436066      	92.624275      	92.812386      	92.93242       	72.732834      	92.38833       	92.61175       	92.76244       	92.94188       	92.95352       	87.01391       	92.560844      	92.78287       	92.913574      	92.35418       	89.97647       	92.698265      	92.87912       	92.98261       	89.99974       	92.715645      	92.87115       	92.971245      	90.12998       	92.656586      	92.79765       	92.78413       	88.991585      	92.70109       	90.4194        	92.64423       	92.61996       	80.99975       	84.53332       	92.399506      	77.94528       	76.13505       	81.07357       	80.27007       	77.13749       	79.90259       	79.909676      	78.94974       	80.06137       	78.93457       	80.23203       	78.79138       	80.43632       	81.16672       	81.32593       	79.65177       	78.78525       	81.07509       	79.108734      	81.41602       	80.603035      	80.39598       	80.64104       	79.7929        	81.07562       	79.21265       	79.88844       	79.63565       	81.23458       	80.93019       	80.08346       	77.9237        	80.842415      	81.30323       	80.468765      	78.77552       	79.02136       	78.85002       	78.54166       	79.117676      	78.36468       	79.86099       	80.37067       	80.42259       	78.83535       	77.9119        	78.04964       	80.95544       	78.68687       	89.23667       	92.45292       	57.48162       	88.90501       	92.28832       	92.252815      	
90.31399       	92.857216      	93.00644       	90.54193       	92.44437       	92.66119       	92.81788       	92.97798       	82.04806       	92.30638       	92.5163        	92.66392       	92.76312       	92.5715        	89.44072       	92.511894      	92.72515       	92.909775      	93.022705      	92.34181       	92.409256      	92.63224       	92.834625      	92.97148       	91.03843       	92.559654      	92.74029       	92.888214      	92.08995       	92.58622       	92.73511       	92.87977       	89.98522       	92.58165       	92.77428       	92.882576      	91.45173       	92.540245      	92.68858       	92.22768       	87.872375      	92.285545      	86.761024      	91.98233       	81.27846       	81.02186       	82.87618       	80.983604      	80.523926      	81.74255       	81.21417       	79.52773       	90.06872       	92.400085      	82.06096       	76.59578       	79.787025      	79.25897       	79.13364       	80.659256      	79.181206      	83.39383       	79.797195      	79.22777       	76.17029       	81.218445      	79.567245      	81.18009       	78.51475       	80.33115       	81.370384      	79.46915       	79.14252       	81.62711       	80.551575      	80.570755      	79.51426       	82.003876      	79.13908       	79.280495      	79.691475      	79.970055      	79.03461       	79.50075       	78.44189       	80.452965      	79.16103       	80.61017       	78.99352       	80.12302       	78.31342       	83.60002       	92.48731       	89.39823       	92.48437       	86.83895       	86.16492       	92.46893       	92.048386      	55.761013      	
92.954926      	87.68376       	92.71897       	92.903114      	93.02995       	81.42448       	92.43693       	92.66574       	92.82269       	92.96174       	87.473755      	92.35426       	92.59163       	92.740295      	92.91589       	92.95881       	86.2261        	92.49985       	92.71839       	92.87441       	93.00485       	90.25611       	92.461624      	92.69604       	92.811584      	92.946014      	87.63549       	92.61251       	92.78144       	92.881744      	87.68485       	92.653         	92.82562       	92.914154      	85.43331       	92.67678       	92.81565       	92.89658       	86.22823       	92.56876       	92.644775      	88.27802       	92.6297        	77.95079       	79.890785      	77.72901       	79.2632        	77.38824       	79.829155      	76.392654      	77.639946      	92.43699       	92.26017       	90.03225       	92.2643        	82.00281       	92.53893       	80.640396      	77.69328       	79.34513       	79.25443       	80.525696      	82.14905       	79.689         	82.51196       	79.936035      	79.739296      	80.18823       	79.27293       	80.51245       	81.628136      	80.32434       	81.2872        	76.989006      	78.07032       	80.24669       	79.63711       	79.19371       	81.403694      	80.14166       	80.50922       	80.090454      	80.12944       	80.641525      	78.4398        	78.19673       	78.26825       	80.63122       	79.31687       	80.084496      	79.01715       	76.49712       	80.278114      	92.47821       	90.88786       	81.376465      	85.37997       	92.479164      	92.039825      	57.205         	
93.07667       	92.691734      	92.8515        	92.9885        	92.557205      	91.68722       	92.587         	92.78947       	92.919975      	92.89609       	89.00956       	92.51776       	92.724785      	92.86198       	92.99799       	88.12808       	92.46484       	92.68174       	92.84268       	92.96195       	93.07256       	77.62103       	92.5374        	92.75427       	92.87212       	92.9785        	76.91526       	92.64008       	92.78967       	92.891884      	83.91229       	92.54559       	92.65361       	92.724464      	89.71173       	92.59039       	92.72665       	92.83483       	92.25395       	89.260056      	92.38945       	87.53259       	92.56236       	78.370285      	80.264244      	79.050644      	79.2568        	77.19848       	77.62611       	79.422165      	92.5227        	91.30145       	92.42734       	91.82578       	82.39783       	81.90286       	92.549286      	86.95946       	92.44907       	79.78744       	77.63354       	80.6107        	77.24879       	83.88949       	80.13508       	78.66036       	82.24567       	79.71365       	79.50392       	78.00138       	79.19596       	78.56043       	81.95125       	79.47797       	81.061615      	77.60555       	78.59959       	78.74947       	81.957504      	80.00031       	80.23343       	80.401276      	79.66566       	80.803314      	79.117714      	80.062935      	79.08961       	79.48986       	81.66254       	80.185776      	77.93621       	92.43616       	91.392136      	86.61735       	92.522224      	76.421425      	92.27869       	92.51665       	89.17182       	54.71937       	
92.77646       	93.103424      	67.07056       	92.70381       	92.861176      	92.99153       	92.1741        	92.333046      	92.579475      	92.7804        	92.90674       	92.9946        	89.729294      	92.48956       	92.69503       	92.86931       	92.983864      	88.798164      	92.47815       	92.71527       	92.86369       	92.96588       	92.99729       	89.327156      	92.65711       	92.80716       	92.91102       	92.066956      	90.51905       	92.74697       	92.85267       	90.15297       	92.579         	92.726685      	92.81632       	92.04995       	84.847305      	92.656494      	92.73776       	78.193665      	82.52344       	92.61148       	71.94551       	76.37352       	77.189865      	79.73767       	79.1172        	80.26124       	78.31511       	91.737175      	92.42466       	88.98277       	92.515594      	87.15979       	92.49912       	87.18125       	92.49578       	58.378017      	92.371574      	78.57521       	79.42597       	82.41817       	82.29717       	79.18518       	79.57343       	80.60864       	77.93138       	78.980415      	78.96872       	77.89875       	79.03601       	81.923805      	79.80101       	81.70257       	80.352104      	79.818756      	79.17897       	79.16892       	81.530815      	80.20838       	79.87183       	80.01489       	79.83681       	79.510124      	80.51432       	80.502205      	79.20241       	80.137375      	77.49149       	78.52304       	76.964584      	92.3526        	92.54051       	88.83085       	92.399414      	92.54026       	83.13827       	85.82734       	92.43724       	92.50039       	
90.98614       	92.85853       	93.002884      	93.08248       	88.455414      	92.5647        	92.75871       	92.92833       	93.035225      	79.1463        	92.47037       	92.68608       	92.83658       	92.96177       	90.29161       	92.456085      	92.66564       	92.8149        	92.93367       	92.97959       	86.94941       	92.55735       	92.70286       	92.82073       	92.87278       	89.73676       	92.6668        	92.791794      	92.897224      	82.21486       	92.49761       	92.635124      	92.750694      	90.05859       	92.550896      	92.702545      	92.82548       	90.97134       	91.532814      	92.63911       	79.20272       	80.29434       	81.61746       	76.92314       	79.7111        	81.44513       	78.543564      	81.03407       	89.62449       	92.52253       	85.64679       	92.543434      	73.70448       	92.51466       	79.27289       	88.934616      	92.09726       	80.51333       	77.77224       	78.56272       	79.96418       	81.72895       	80.65008       	80.29374       	78.77917       	79.299095      	79.248405      	79.71294       	78.12128       	79.1467        	77.01057       	81.597885      	80.8321        	80.03596       	79.889404      	79.994675      	79.94147       	79.43016       	81.047005      	80.37753       	80.23583       	80.32482       	78.91289       	78.23443       	81.25522       	80.15712       	77.38444       	77.742226      	79.43028       	79.2592        	75.88113       	92.32932       	92.52507       	82.3433        	92.35078       	92.531425      	90.67414       	85.74093       	92.424034      	92.49748       	
92.68535       	92.99481       	93.08688       	90.31987       	92.57178       	92.74372       	92.91071       	93.02632       	90.44486       	92.42651       	92.62095       	92.79279       	92.925316      	92.95481       	86.93855       	92.56342       	92.732574      	92.84556       	92.95705       	91.7966        	92.534515      	92.75778       	92.844025      	92.9474        	92.64656       	88.4641        	92.68299       	92.806984      	92.891         	89.59554       	92.59119       	92.72488       	92.83843       	84.55742       	92.533066      	92.697754      	92.80886       	92.3494        	89.69035       	92.594894      	91.13231       	81.23992       	76.964066      	76.497696      	79.345474      	77.87793       	79.36025       	79.89264       	79.00889       	78.42769       	81.87469       	79.84896       	92.42542       	92.41022       	86.98961       	92.37433       	73.96754       	91.103264      	78.679375      	92.47995       	57.741787      	77.64114       	81.93822       	77.454445      	77.85696       	80.56392       	80.603676      	76.7027        	80.8157        	77.98244       	81.09512       	80.01081       	80.98219       	80.697975      	80.03289       	80.6176        	80.398186      	80.47472       	79.499         	79.54739       	78.67582       	78.6965        	79.468994      	82.01648       	79.810646      	76.88144       	78.21667       	78.92143       	91.3903        	90.21366       	92.33313       	92.52381       	77.963326      	92.33205       	92.51857       	90.9934        	86.00274       	92.3747        	92.4649        	92.51321       	
92.775894      	93.07105       	91.82024       	92.48903       	92.7076        	92.86451       	92.98808       	93.01846       	89.84888       	92.5858        	92.75242       	92.86155       	92.969734      	88.30517       	92.504616      	92.69287       	92.834625      	92.94777       	92.92559       	87.84885       	92.64899       	92.77477       	92.90605       	92.97957       	88.256294      	92.58298       	92.7318        	92.84661       	92.81861       	86.60595       	92.59377       	92.719536      	92.82493       	89.73384       	92.554016      	92.662834      	92.769226      	87.41492       	92.4868        	92.649185      	73.39578       	92.53845       	87.75176       	78.34018       	77.566025      	81.870636      	79.35595       	78.91071       	79.443726      	75.64185       	87.17993       	92.4765        	85.54501       	92.32737       	87.0446        	92.439575      	90.2836        	79.97291       	92.40266       	80.976494      	78.65981       	79.7369        	79.61816       	80.39572       	79.929344      	84.040085      	79.72278       	76.03152       	79.09057       	77.942154      	78.475555      	79.28793       	78.67157       	77.755         	80.0824        	78.986595      	78.53279       	80.90133       	79.74596       	81.82988       	78.34725       	77.41763       	78.37257       	80.07058       	81.35423       	79.09011       	79.915794      	79.74435       	78.26553       	81.67696       	92.36616       	92.3286        	88.75152       	92.44603       	92.566414      	89.99723       	92.25992       	92.400795      	92.48024       	92.52019       	
92.6697        	92.99144       	92.959435      	90.415504      	92.69619       	92.846695      	92.970345      	93.04502       	89.467415      	92.46503       	92.678925      	92.85914       	92.92142       	85.558655      	92.57541       	92.74227       	92.852516      	92.96427       	92.74526       	92.52149       	92.673164      	92.817696      	92.92241       	92.99393       	89.730705      	92.63725       	92.7668        	92.885635      	92.466896      	91.282745      	92.666016      	92.811325      	92.887825      	87.645226      	92.61195       	92.753685      	92.85935       	86.684586      	92.533424      	92.67642       	83.66131       	92.50106       	92.64339       	84.57973       	80.609924      	78.28507       	77.29926       	78.86166       	77.5242        	79.69273       	80.89798       	77.52566       	75.77064       	92.41229       	92.49744       	76.421265      	79.751656      	81.04502       	77.27756       	82.03079       	78.57273       	78.393616      	80.632065      	79.264244      	79.638954      	78.41662       	79.015305      	79.103325      	77.859924      	78.57787       	78.99186       	79.626495      	79.34475       	79.524185      	78.88699       	77.91033       	82.34409       	78.03035       	77.21224       	77.19923       	78.17519       	79.07837       	79.240234      	80.56052       	79.95255       	77.81322       	79.65644       	80.2082        	87.299644      	90.56042       	91.03681       	92.489136      	91.828896      	92.28667       	92.51564       	92.569695      	86.61642       	92.335365      	92.43046       	92.51056       	
93.00707       	92.5436        	92.756836      	92.924164      	93.03119       	92.37887       	92.50467       	92.70808       	92.87025       	92.965515      	92.641106      	90.25873       	92.718056      	92.85266       	92.937775      	93.03884       	87.73559       	92.5912        	92.7417        	92.860466      	92.98633       	86.80193       	92.63161       	92.769424      	92.89489       	92.98411       	90.06885       	92.62231       	92.76632       	92.88335       	92.80819       	89.904884      	92.636566      	92.770355      	92.92748       	77.4465        	92.31442       	92.40616       	92.3899        	86.27061       	92.355316      	92.45636       	78.824265      	92.30262       	92.31786       	87.4095        	92.275604      	70.27906       	81.13292       	77.428604      	80.38577       	81.026276      	81.971886      	92.2847        	90.74997       	91.33941       	92.34655       	89.21163       	92.261604      	75.45667       	76.78883       	80.738754      	79.28106       	80.36136       	78.119576      	80.135704      	80.863335      	78.17523       	80.5742        	80.64619       	79.73718       	80.189445      	80.27816       	80.58344       	79.624886      	78.40326       	79.21997       	79.00115       	79.49282       	77.433975      	79.178665      	78.35055       	78.25065       	80.77406       	76.602844      	77.19129       	80.30736       	79.4956        	75.3793        	92.21684       	88.18678       	92.2039        	92.47588       	92.52357       	85.05975       	92.379005      	92.50513       	92.5298        	50.822346      	90.11267       	
93.03332       	92.58596       	92.79525       	92.93674       	93.01505       	85.22129       	92.571754      	92.74737       	92.872505      	92.95142       	88.677734      	92.64887       	92.81337       	92.92171       	93.001274      	87.20509       	92.62382       	92.79006       	92.920425      	93.01724       	82.42042       	92.64916       	92.76414       	92.90817       	92.99843       	89.709915      	92.569595      	92.71537       	92.86111       	92.98405       	79.625336      	92.58301       	92.73958       	92.885864      	92.19952       	91.45496       	92.634415      	92.781494      	86.47746       	92.43919       	92.49271       	75.1065        	92.53745       	92.646355      	86.271225      	92.43689       	92.34315       	87.11407       	92.59192       	77.336296      	75.780754      	74.95144       	78.67272       	82.47553       	92.54796       	86.954926      	92.45158       	92.348045      	85.35161       	92.39632       	76.92219       	78.27385       	80.137405      	80.247765      	80.45114       	78.20921       	80.395775      	77.47933       	81.02946       	92.463715      	86.64913       	92.460365      	86.72296       	92.437584      	92.094475      	89.58307       	92.08578       	80.51421       	80.02567       	80.22395       	80.70587       	77.35193       	76.179634      	79.85714       	78.816025      	80.45586       	77.061         	77.40943       	78.32964       	78.1771        	83.837326      	92.395226      	92.33776       	89.16967       	92.449715      	92.388         	78.56901       	80.59015       	90.016785      	92.39397       	
92.86095       	89.68564       	92.63107       	92.80621       	92.93741       	92.935455      	90.13225       	92.44052       	92.50431       	92.62448       	91.387375      	92.57018       	92.73896       	92.845894      	92.96648       	91.68817       	92.56729       	92.71835       	92.8713        	92.97375       	92.705894      	85.387726      	92.718185      	92.85184       	92.95862       	92.74576       	85.53129       	92.71248       	92.86455       	92.98196       	91.89378       	90.99178       	92.67607       	92.837715      	92.939575      	86.459755      	92.60429       	92.772         	92.64282       	86.31288       	92.64933       	92.77148       	87.04687       	92.57449       	92.431114      	80.93781       	92.521034      	92.60216       	89.0976        	92.60787       	68.4258        	84.14311       	87.63069       	92.05499       	89.40013       	92.065895      	88.990166      	92.41451       	92.49758       	77.58418       	79.3048        	79.18435       	81.73729       	80.53646       	81.89519       	80.964485      	81.757164      	79.33311       	90.88716       	92.40864       	87.07169       	92.58847       	50.36086       	92.47548       	92.60694       	86.22754       	92.51323       	92.46189       	86.602806      	92.507324      	81.13387       	78.127495      	78.85749       	78.99016       	79.9175        	77.842         	77.57244       	81.84887       	79.40317       	83.51894       	92.39098       	91.691376      	86.67114       	92.48031       	92.28881       	89.51096       	92.20384       	92.25026       	92.068245      	53.610294      	
87.47975       	92.83605       	92.93679       	88.503685      	92.53237       	92.719894      	92.847534      	92.874115      	89.95033       	92.649445      	92.78448       	92.87647       	89.746605      	92.5688        	92.718735      	92.86633       	92.970665      	89.66587       	92.62554       	92.76025       	92.8881        	92.98136       	92.37965       	92.58226       	92.7275        	92.86297       	92.99267       	92.31906       	92.57906       	92.73692       	92.90315       	93.03326       	91.12681       	92.542694      	92.71763       	92.861336      	92.97592       	88.99535       	92.63393       	92.80312       	91.351395      	92.498566      	92.68768       	87.33814       	92.485725      	92.62596       	84.98782       	92.49956       	92.614975      	86.59635       	92.51279       	88.4336        	92.48002       	92.20588       	86.99534       	92.55231       	87.61447       	92.47518       	89.60957       	92.50753       	66.30591       	79.50437       	78.244255      	81.17249       	79.28529       	73.28685       	92.41015       	91.717026      	88.972755      	92.61382       	85.9843        	92.460815      	92.55638       	87.818146      	92.44995       	92.59579       	88.02893       	92.47054       	92.53879       	88.89426       	92.44781       	85.59505       	92.26477       	77.63052       	75.45222       	76.761246      	81.21966       	78.72583       	78.5828        	80.497696      	92.234665      	92.48249       	77.78881       	92.349365      	92.501816      	90.99689       	86.867645      	92.39973       	92.465744      	92.49917       	
92.76371       	86.21167       	92.73405       	92.84798       	92.93181       	88.04497       	92.630684      	92.76154       	92.87699       	89.875824      	92.56311       	92.70783       	92.83938       	92.96862       	76.750595      	92.583916      	92.734695      	92.85184       	92.96915       	88.77846       	92.694534      	92.85334       	92.96475       	92.618835      	85.040985      	92.72046       	92.86481       	93.00759       	92.50216       	92.52131       	92.67916       	92.84007       	92.93691       	90.21936       	92.62682       	92.78975       	92.94682       	84.22195       	92.59721       	92.782196      	92.90514       	89.90616       	92.602974      	92.761566      	86.13347       	92.534676      	92.4766        	86.91451       	92.65006       	88.85769       	92.51329       	92.60505       	85.97946       	92.66117       	79.33068       	92.48494       	92.52005       	85.61948       	92.51655       	88.47736       	92.49776       	92.35255       	86.28056       	92.551025      	86.21575       	92.49224       	85.61882       	92.44558       	92.627205      	87.936966      	92.39461       	92.58223       	84.2211        	92.44279       	92.62463       	78.31064       	92.457924      	92.62466       	80.71134       	92.366714      	92.52          	77.13269       	89.169266      	92.27439       	76.462265      	79.36186       	78.59639       	75.892426      	83.65108       	77.87247       	92.13565       	92.44101       	91.932365      	84.620605      	92.20917       	92.33273       	92.05222       	89.51012       	92.32833       	92.390656      	
87.90126       	92.77752       	92.4968        	91.91563       	92.68906       	92.78991       	92.26373       	92.375244      	92.64543       	92.769196      	92.76113       	90.09551       	92.6577        	92.77216       	92.90471       	92.79193       	87.613396      	92.70078       	92.83667       	92.9631        	92.89436       	89.712975      	92.73235       	92.87234       	93.02108       	92.81505       	87.90802       	92.76535       	92.90902       	93.03682       	92.39274       	92.540886      	92.725174      	92.90308       	93.0509        	74.25045       	92.65601       	92.8452        	92.992874      	84.75586       	92.60032       	92.78177       	92.36744       	90.41542       	92.681496      	92.11773       	92.141846      	92.59415       	92.28688       	90.323105      	92.55773       	92.277275      	88.59011       	92.6427        	91.10434       	92.4541        	92.67843       	76.50733       	92.48209       	92.699135      	76.25262       	92.502815      	92.646675      	88.76145       	92.59851       	88.97689       	92.43856       	92.65703       	92.04089       	92.26096       	92.654594      	91.7437        	92.43739       	92.62128       	92.705185      	85.43504       	92.50609       	92.64338       	87.97931       	92.415054      	92.56564       	91.26528       	92.29422       	92.490074      	88.595276      	92.250725      	92.31035       	77.30009       	77.84576       	80.07979       	92.26897       	92.47886       	88.38967       	92.31728       	92.50032       	90.72719       	87.884995      	92.420235      	92.46888       	91.71214       	
92.58933       	88.72911       	92.49326       	91.939384      	92.46127       	92.70214       	92.71301       	85.63331       	92.62699       	92.76553       	92.857216      	88.023026      	92.619644      	92.76905       	92.897285      	93.02118       	72.2213        	92.657074      	92.80998       	92.944885      	93.06538       	78.98297       	92.66958       	92.82402       	92.948685      	93.10005       	89.43435       	92.634155      	92.79787       	92.981255      	93.13777       	91.814735      	92.58217       	92.77772       	92.95338       	93.11014       	89.90967       	92.70281       	92.891396      	93.03173       	87.25807       	92.65092       	92.845         	91.19551       	92.51401       	92.71882       	92.265114      	90.01104       	92.67597       	92.7898        	86.20935       	92.6633        	92.56494       	86.40417       	92.66677       	90.909195      	92.287         	92.68218       	89.208694      	92.59953       	92.16034       	89.90642       	92.6293        	79.00923       	92.57304       	92.6242        	86.15588       	92.590515      	92.73549       	87.98595       	92.555534      	92.73379       	80.77279       	92.44429       	92.6582        	92.624756      	89.90073       	92.528015      	92.67541       	82.37455       	92.392845      	92.59436       	92.663925      	84.7703        	92.44419       	92.58423       	89.04632       	92.31061       	92.503265      	84.44141       	92.2674        	92.47694       	91.5531        	91.01693       	92.427055      	92.43507       	87.6553        	92.34805       	92.422615      	92.475174      	
45.697674      	92.59804       	86.97005       	92.35557       	87.947945      	92.541145      	92.7073        	91.05575       	92.49508       	92.67709       	92.79999       	92.30586       	90.06403       	92.696655      	92.83621       	92.94856       	82.92078       	92.66222       	92.79366       	92.944824      	93.082954      	90.28687       	92.63442       	92.77743       	92.96234       	93.107544      	92.95597       	87.801384      	92.774734      	92.96213       	93.10834       	93.13012       	90.545395      	92.74964       	92.947525      	93.10429       	92.0281        	92.44868       	92.69864       	92.82442       	92.51959       	92.56018       	92.76311       	92.9513        	38.868336      	92.5655        	92.732994      	91.97502       	92.45024       	92.630005      	92.757996      	90.41656       	92.59656       	92.71834       	85.51852       	92.6194        	92.80769       	85.441895      	92.569496      	92.73595       	87.63872       	92.616974      	92.757454      	85.34679       	92.63501       	92.80556       	90.14114       	92.57002       	92.758         	90.418816      	92.47314       	92.668884      	92.69998       	88.43384       	92.55048       	92.71368       	91.15506       	92.38192       	92.58328       	92.718994      	89.95744       	92.475685      	92.62614       	92.000145      	92.29035       	92.49921       	92.60014       	85.663055      	92.37811       	92.544464      	88.34543       	92.29769       	92.529205      	92.386826      	87.72623       	92.4509        	92.560844      	92.52329       	47.128433      	85.59593       	
92.603806      	92.59282       	92.39142       	86.81091       	92.64946       	88.74039       	92.57037       	90.18892       	92.51812       	92.66867       	92.68815       	88.74052       	92.629425      	92.77899       	92.87872       	89.91305       	92.67058       	92.8146        	92.95606       	93.06809       	87.5528        	92.7026        	92.81353       	92.962425      	93.13374       	83.759544      	92.61861       	92.80783       	92.996445      	93.139206      	90.74298       	92.614975      	92.85516       	93.00715       	93.15541       	84.67889       	92.66903       	92.86577       	93.02719       	90.54774       	92.642265      	92.841354      	93.03486       	83.83459       	92.58941       	92.77782       	92.92991       	88.0884        	92.6793        	92.885704      	73.904335      	92.595795      	92.80169       	91.66718       	92.58309       	92.776405      	91.82344       	85.10963       	92.728195      	92.849846      	87.913895      	92.65815       	92.836296      	78.6543        	92.57578       	92.75077       	92.33777       	90.22713       	92.64989       	92.80966       	87.362114      	92.54551       	92.70988       	92.782776      	88.05769       	92.50414       	92.68513       	92.792816      	87.79146       	92.4904        	92.64565       	92.68021       	88.63428       	92.496605      	92.66804       	92.45456       	90.11061       	92.48537       	92.642746      	85.37302       	92.28776       	92.45258       	92.61611       	86.62468       	92.3981        	92.53657       	92.62648       	92.516075      	43.44135       	89.76645       	
92.63394       	92.583855      	87.837036      	92.62777       	81.16092       	92.55465       	78.88382       	92.24899       	89.25463       	92.5155        	92.67686       	86.848564      	92.34031       	92.45251       	92.59543       	85.571045      	92.644066      	92.79177       	92.93256       	93.059074      	85.952446      	92.615974      	92.71707       	92.83182       	92.970146      	89.46172       	92.636024      	92.829956      	93.020164      	93.17593       	92.71312       	92.46835       	92.85097       	93.03042       	93.18057       	91.905075      	92.58581       	92.804214      	93.00105       	92.46526       	92.47737       	92.86211       	93.024536      	91.7839        	92.58322       	92.785706      	92.981766      	89.650826      	92.65961       	92.855034      	91.348755      	92.57271       	92.7766        	92.62468       	90.51688       	92.74607       	92.77698       	89.20225       	92.75549       	92.90221       	77.03073       	92.58642       	92.79332       	92.61593       	90.161095      	92.672775      	92.86396       	92.00506       	92.44421       	92.6617        	92.83546       	92.33541       	92.151695      	92.58665       	92.77546       	91.85467       	90.54978       	92.60251       	92.76261       	92.75812       	88.11045       	92.530914      	92.68942       	92.79665       	87.53684       	92.44521       	92.60681       	92.74878       	85.65983       	92.3582        	92.56211       	92.678696      	89.79844       	92.37552       	92.54382       	92.66777       	91.679825      	85.32637       	92.32193       	92.3805        	
64.57594       	86.68761       	81.95642       	85.96261       	92.5321        	79.104485      	78.6025        	79.77423       	80.44808       	92.58062       	92.501465      	85.867294      	92.64722       	92.807594      	92.70039       	85.229256      	92.71326       	92.849884      	92.995705      	92.968575      	87.91147       	92.73941       	92.886         	93.06583       	93.205086      	76.99081       	92.669876      	92.8549        	93.04896       	93.20173       	91.0091        	92.64614       	92.901596      	93.07158       	93.20276       	80.27928       	92.750694      	92.96079       	93.116394      	89.865906      	92.69904       	92.920006      	93.08719       	89.59422       	92.61877       	92.865814      	93.029755      	84.82524       	92.62301       	92.81627       	92.80654       	86.83072       	92.83069       	92.75547       	85.64968       	92.804146      	92.95088       	71.87096       	92.666046      	92.839806      	92.915405      	90.472046      	92.72814       	92.88855       	93.01944       	89.38573       	92.60045       	92.783325      	92.92573       	90.361694      	92.487755      	92.69454       	92.84147       	92.589935      	91.98527       	92.591225      	92.74713       	92.648315      	84.76127       	92.53604       	92.707886      	92.827835      	87.0143        	92.42242       	92.575836      	92.715065      	92.57155       	84.93188       	92.50176       	92.64476       	92.25921       	92.12706       	92.473045      	92.62511       	92.54983       	85.8604        	92.460976      	92.53718       	92.58733       	92.646706      	
78.44719       	76.05351       	79.77349       	92.56369       	58.876392      	75.073166      	80.315285      	92.55852       	89.8591        	92.46608       	92.60214       	92.3857        	86.54854       	92.69427       	92.86981       	93.00603       	92.64529       	92.57103       	92.7746        	92.930534      	93.09201       	93.23467       	90.47829       	92.71023       	92.91994       	93.10102       	93.27204       	93.4218        	93.470985      	90.09134       	92.83839       	93.025154      	93.19618       	93.234634      	87.08044       	92.84323       	93.06047       	93.1717        	90.775475      	92.75641       	92.9667        	93.12331       	87.52864       	92.68198       	92.90945       	93.07462       	89.31529       	92.65496       	92.89031       	93.01916       	85.14361       	92.711075      	92.89335       	92.82548       	84.83946       	92.77134       	92.95633       	92.22715       	92.61481       	92.80107       	92.96593       	92.81204       	85.447586      	92.78871       	92.92438       	93.042206      	81.24615       	92.566284      	92.749016      	92.93973       	92.89401       	90.34114       	92.61088       	92.78684       	92.904305      	87.73488       	92.48049       	92.691345      	92.82377       	92.83739       	87.864296      	92.520065      	92.67918       	92.81288       	87.98916       	92.43575       	92.61046       	92.75254       	92.35874       	87.29318       	92.460106      	92.64011       	92.70648       	87.6165        	92.37894       	92.51215       	92.61838       	92.53268       	44.690506      	85.582306      	
80.42709       	76.63306       	80.81088       	79.678764      	79.76431       	81.331604      	87.46823       	92.6116        	89.450584      	92.64224       	92.74835       	85.347435      	92.59583       	92.690445      	92.80344       	93.0067        	87.11621       	92.72315       	92.909584      	93.055214      	93.21481       	92.92123       	88.87196       	92.87773       	93.043655      	93.22452       	93.36152       	93.40056       	89.440796      	92.90065       	93.10589       	93.25021       	93.35411       	77.40441       	92.83267       	93.04666       	93.17346       	93.30246       	71.40441       	92.82789       	93.01568       	93.15531       	90.39136       	92.70531       	92.927986      	93.09274       	90.947845      	92.66818       	92.865974      	93.040764      	91.67545       	92.67273       	92.87692       	93.03065       	92.24183       	92.6568        	92.84139       	93.001915      	93.06393       	90.241005      	92.75102       	92.914665      	93.037926      	93.03639       	85.169136      	92.72228       	92.88939       	92.996994      	92.18883       	92.48652       	92.68933       	92.85219       	92.9719        	90.3138        	92.470055      	92.6704        	92.821625      	92.953316      	80.94534       	92.476364      	92.66441       	92.78862       	92.751114      	87.842         	92.57369       	92.73345       	92.85586       	90.08895       	92.35418       	92.537994      	92.666595      	92.4307        	92.2551        	92.47283       	92.63554       	92.701904      	88.866196      	89.72254       	92.364624      	92.41415       	
78.854095      	81.13698       	77.593124      	81.10509       	81.55318       	85.715965      	92.618095      	92.73796       	85.92723       	92.63223       	92.78056       	90.81358       	92.60656       	92.78349       	92.95192       	93.113785      	93.258156      	87.098854      	92.725784      	92.90106       	93.08387       	93.25299       	93.39525       	92.359245      	92.71631       	92.9333        	93.109764      	93.267426      	93.366165      	90.605034      	92.89355       	93.0665        	93.22889       	93.32834       	92.38864       	92.849464      	93.05048       	93.21111       	93.27518       	89.18868       	92.80487       	92.99567       	93.13353       	92.32941       	92.34573       	92.651405      	92.90173       	92.77328       	90.25515       	92.85714       	93.016884      	93.09209       	90.23734       	92.78977       	92.96421       	93.074905      	87.31684       	92.73278       	92.89936       	93.0106        	93.099434      	90.53908       	92.73692       	92.90688       	93.04349       	93.115005      	89.45689       	92.6764        	92.860466      	93.001816      	93.00282       	90.326         	92.64559       	92.81595       	92.95276       	92.604515      	90.540016      	92.61671       	92.75533       	92.89005       	92.6885        	86.95662       	92.55779       	92.71708       	92.847466      	91.831566      	92.40258       	92.59151       	92.74407       	92.83084       	89.31427       	92.35496       	92.53672       	92.67285       	92.37019       	90.296974      	92.37331       	92.46699       	92.50876       	92.53953       	
78.25159       	79.480934      	75.85122       	79.13965       	80.82109       	78.00291       	92.51223       	92.661385      	85.94766       	92.59712       	92.731926      	82.42113       	92.59402       	92.77376       	92.94842       	93.12671       	92.38854       	92.52612       	92.75663       	92.961426      	93.13368       	93.275185      	93.265526      	90.08227       	92.88639       	93.06756       	93.18486       	93.31291       	92.877495      	92.90418       	93.08264       	93.229256      	93.343254      	92.36127       	92.652695      	93.07826       	93.20317       	93.28949       	84.045395      	92.599144      	92.759186      	92.76093       	91.68633       	92.75573       	92.94561       	93.06196       	90.625275      	92.572334      	92.73219       	92.87294       	90.53707       	92.6929        	92.87858       	93.02572       	92.92869       	90.37578       	92.811615      	92.954056      	93.07181       	91.90995       	92.615585      	92.77944       	92.93245       	93.05776       	92.544914      	92.59734       	92.778824      	92.92123       	93.05176       	89.16644       	92.56509       	92.73192       	92.900635      	93.01758       	90.12777       	92.479164      	92.6702        	92.83819       	92.962814      	92.419754      	92.37676       	92.55248       	92.68768       	92.82213       	91.52057       	92.487366      	92.63844       	92.77978       	92.85919       	87.74287       	92.3575        	92.531265      	92.65556       	91.78472       	92.26218       	92.43923       	92.55223       	92.61496       	92.654526      	92.69378       	
78.09852       	81.0722        	76.3466        	81.280464      	77.92949       	92.49851       	88.514336      	92.496796      	92.65438       	86.40413       	92.564156      	92.7543        	90.20181       	92.54065       	92.74517       	92.65525       	92.839         	92.97106       	86.93407       	92.42768       	92.612144      	92.74868       	92.87226       	92.935135      	71.89712       	92.91682       	93.09222       	93.258934      	93.35039       	90.43438       	93.0396        	93.19744       	93.30309       	93.32636       	90.77345       	92.99074       	93.14814       	93.25962       	93.0553        	90.14387       	92.75075       	92.83418       	92.827965      	85.17916       	92.742256      	92.86509       	92.65815       	88.424805      	92.9239        	93.0457        	92.74889       	88.16546       	92.868484      	92.97282       	93.055145      	88.8622        	92.73751       	92.91548       	93.01082       	93.03643       	90.52492       	92.76606       	92.926735      	93.05054       	93.13209       	89.20222       	92.71706       	92.87854       	92.996994      	93.05298       	89.849174      	92.65995       	92.846085      	92.98265       	93.03599       	89.54189       	92.55653       	92.74262       	92.87711       	92.99455       	86.872246      	92.465775      	92.63743       	92.75418       	92.81607       	84.886856      	92.52054       	92.676544      	92.80242       	86.07579       	92.278854      	92.477776      	92.62678       	92.75569       	90.28827       	92.314354      	92.465904      	92.55811       	92.62233       	92.666435      	
75.64899       	78.02146       	82.034935      	81.02707       	78.16493       	92.47625       	92.57947       	90.126686      	92.583         	91.64613       	92.280846      	92.53936       	92.680466      	84.476265      	92.60845       	92.80583       	93.0105        	93.15657       	93.28731       	89.77135       	92.73278       	92.95657       	93.11621       	93.26159       	93.34942       	85.608925      	93.021835      	93.19821       	93.30458       	93.332985      	86.999954      	93.1699        	93.291855      	93.33908       	85.35276       	92.95541       	93.12423       	93.19985       	93.26452       	90.28404       	92.908035      	93.02585       	93.010925      	84.93705       	92.59833       	92.76242       	92.82163       	85.232834      	92.92472       	93.066635      	92.98618       	90.361916      	92.82993       	92.94904       	93.08166       	84.85824       	92.71329       	92.89708       	93.02541       	93.1081        	82.19671       	92.70855       	92.86579       	93.01419       	93.1329        	90.39448       	92.64913       	92.83895       	92.97116       	93.12197       	91.78442       	92.583466      	92.750145      	92.91423       	93.04438       	91.91292       	92.46041       	92.65449       	92.79264       	92.93043       	92.74495       	90.1807        	92.53714       	92.67952       	92.80931       	90.436         	92.42429       	92.582085      	92.7224        	92.656         	86.75906       	92.37559       	92.542145      	92.684654      	92.52669       	90.123886      	92.35943       	92.46448       	92.535484      	92.57785       	
80.57451       	92.39799       	91.5929        	92.373405      	92.551315      	89.16245       	92.59402       	92.78037       	88.33571       	92.60765       	92.79442       	92.946144      	92.9814        	87.71386       	92.768906      	92.980385      	93.13799       	93.28522       	93.398636      	90.926895      	92.68298       	92.913376      	93.084564      	93.248344      	93.36713       	88.139336      	93.00833       	93.17416       	93.29349       	93.27878       	87.55522       	93.19038       	93.27911       	93.31358       	90.357704      	93.04771       	93.1592        	93.247116      	86.45908       	92.87273       	92.9979        	93.09454       	87.2058        	92.64815       	92.779045      	92.80855       	90.511215      	92.88045       	92.99776       	92.1005        	92.60894       	92.86977       	92.99297       	92.872856      	90.096         	92.74585       	92.90776       	93.02756       	92.5165        	92.418526      	92.76551       	92.903656      	93.01921       	92.777115      	85.92862       	92.77158       	92.92818       	93.06802       	92.04715       	92.6245        	92.78883       	92.90299       	92.96728       	87.32425       	92.63134       	92.804924      	92.93825       	92.970566      	85.96401       	92.49519       	92.678795      	92.79613       	92.89237       	89.16422       	92.46666       	92.606476      	92.74807       	92.85208       	86.4445        	92.37166       	92.54722       	92.679         	92.80614       	88.889854      	92.30702       	92.447914      	92.59193       	92.693924      	92.73819       	92.76462       	
78.1448        	92.494194      	73.03003       	92.46022       	92.66062       	88.72678       	92.51497       	92.70398       	92.85215       	88.764404      	92.51749       	92.66361       	92.86497       	93.0244        	89.32987       	92.69543       	92.932945      	93.12554       	93.26877       	93.36049       	93.46053       	92.93778       	92.78615       	93.01194       	93.172226      	93.27992       	93.35626       	85.1109        	93.11005       	93.239845      	93.327644      	92.80367       	89.72232       	93.16996       	93.26425       	93.23967       	87.39367       	92.98886       	93.09358       	93.183205      	39.690952      	92.492096      	92.64923       	92.78823       	33.93299       	92.78912       	92.92489       	93.014786      	85.111694      	92.80681       	92.93615       	93.022064      	88.82087       	92.69064       	92.86386       	92.995445      	93.08054       	90.0534        	92.68698       	92.860466      	92.99275       	93.1198        	88.292305      	92.681175      	92.80745       	92.97779       	92.86215       	87.60089       	92.78566       	92.93531       	93.04657       	90.626236      	92.61434       	92.78094       	92.91819       	93.029785      	89.15904       	92.48119       	92.66498       	92.797226      	92.92292       	91.836426      	92.35001       	92.53743       	92.681206      	92.81691       	92.85739       	89.09706       	92.42655       	92.59866       	92.73126       	92.85096       	89.433876      	92.316895      	92.48603       	92.621086      	92.69458       	92.73699       	92.77532       	92.79193       	
79.53289       	78.73442       	86.00036       	92.57325       	92.57338       	88.92428       	92.60141       	92.78743       	89.11439       	92.58731       	92.80866       	92.98917       	93.157684      	92.88787       	92.636284      	92.87902       	93.083694      	93.23171       	93.35881       	93.45909       	93.48433       	89.85452       	92.88514       	93.05673       	93.18933       	93.27171       	93.26732       	88.76206       	93.15703       	93.290764      	93.360565      	87.37319       	93.09764       	93.20464       	93.27765       	92.65468       	92.93187       	93.04709       	93.15176       	92.88115       	87.52355       	92.90902       	93.03026       	92.69733       	90.828094      	92.87841       	92.99329       	92.643         	90.91984       	92.86363       	92.98081       	92.91109       	89.910255      	92.7684        	92.90835       	93.041664      	92.21201       	92.59706       	92.81013       	92.948105      	93.07113       	92.35047       	92.72508       	92.80771       	92.90298       	92.96718       	89.31732       	92.70926       	92.89416       	93.0105        	93.13877       	90.613815      	92.614876      	92.789215      	92.934296      	93.07743       	90.5775        	92.47247       	92.65361       	92.81766       	92.9042        	92.522675      	92.328476      	92.50168       	92.68617       	92.79426       	92.87875       	86.687645      	92.37804       	92.574356      	92.71005       	92.82358       	90.57408       	92.229004      	92.44244       	92.58152       	92.710655      	92.798386      	92.84909       	92.87731       	
79.02293       	77.44445       	78.972786      	79.13725       	92.285194      	92.24725       	88.98799       	92.66329       	92.60912       	85.03876       	92.50448       	92.59073       	92.54782       	90.51872       	92.79142       	92.98626       	93.15268       	93.26946       	93.32202       	86.90664       	92.8273        	93.04779       	93.17839       	93.27881       	93.35107       	91.02689       	93.11214       	93.22581       	93.3119        	93.394936      	73.16055       	93.10008       	93.21813       	93.294846      	92.09599       	92.94561       	93.06109       	93.162315      	92.99074       	87.84694       	92.93867       	93.06131       	93.061874      	87.724144      	92.723915      	92.85592       	92.95111       	90.594955      	92.80011       	92.92491       	92.960655      	89.2726        	92.73022       	92.878876      	92.98845       	90.83031       	92.6044        	92.77327       	92.93734       	93.04162       	91.37578       	92.74129       	92.90724       	93.037865      	93.15796       	88.441444      	92.79913       	92.93972       	93.09327       	93.18464       	88.28829       	92.71366       	92.88681       	93.01429       	93.07639       	88.96825       	92.59235       	92.74112       	92.872086      	92.98009       	75.147575      	92.408905      	92.59314       	92.75053       	92.85711       	92.30415       	92.29075       	92.46758       	92.64784       	92.76841       	92.87401       	85.31048       	92.29768       	92.48742       	92.619385      	92.72197       	92.80791       	92.8544        	92.89526       	92.7458        	
75.76005       	88.31539       	92.382706      	88.68858       	92.592926      	78.953026      	92.55037       	92.751045      	83.62402       	92.612625      	92.80075       	89.446175      	92.57878       	92.82239       	92.998085      	93.13947       	90.42143       	92.707245      	92.93548       	93.099304      	93.22012       	93.34208       	93.41533       	86.83023       	92.83083       	93.00988       	93.111946      	93.27961       	93.31584       	85.809135      	93.061844      	93.17972       	93.27808       	93.15529       	88.52957       	93.077286      	93.21791       	92.92627       	89.66608       	92.96759       	93.051384      	93.04861       	90.50922       	92.87422       	92.992256      	91.88246       	92.69533       	92.84703       	92.96267       	92.425575      	84.98621       	92.74921       	92.89148       	92.98073       	87.43146       	92.71996       	92.880424      	93.00984       	93.10149       	87.21745       	92.72793       	92.914185      	93.05763       	93.1534        	83.08519       	92.78984       	92.96046       	93.08958       	93.20307       	88.44486       	92.74223       	92.897644      	93.04696       	93.13554       	82.86003       	92.593895      	92.75297       	92.88315       	92.99746       	85.83858       	92.4008        	92.58573       	92.73536       	92.85129       	92.40889       	92.26631       	92.46585       	92.60445       	92.75277       	92.87376       	85.470604      	92.325676      	92.50537       	92.651924      	92.76201       	92.85853       	92.93186       	92.37773       	89.68894       	92.27504       	
77.69387       	62.062035      	92.49933       	77.229416      	74.514244      	92.479515      	92.67784       	86.4119        	92.59581       	92.79593       	92.09574       	92.63637       	92.85116       	93.02716       	93.1693        	90.58759       	92.73735       	92.93159       	93.09235       	93.22095       	93.29921       	93.40564       	82.69412       	92.894516      	93.07813       	93.183395      	93.29459       	93.4063        	87.125114      	92.914444      	92.985886      	93.06261       	93.090454      	88.940956      	93.03778       	93.15355       	92.169044      	92.84754       	92.97749       	93.06323       	91.379616      	92.72293       	92.86716       	92.9718        	90.432945      	92.67349       	92.826965      	92.94888       	90.03311       	92.65639       	92.80792       	92.92946       	92.33235       	92.20677       	92.737465      	92.8866        	93.01382       	92.59008       	87.02754       	92.76667       	92.88898       	93.04106       	93.15303       	90.22151       	92.791725      	92.94603       	93.09032       	93.178444      	85.21033       	92.7962        	92.941025      	93.09103       	93.14324       	90.27016       	92.6965        	92.84023       	92.97512       	92.73597       	89.179924      	92.554344      	92.69644       	92.82793       	92.81227       	89.2766        	92.41021       	92.566765      	92.69829       	92.84839       	90.65514       	92.26469       	92.46447       	92.62821       	92.763306      	92.906975      	92.70214       	89.8705        	92.33007       	92.44152       	92.508606      	92.546455      	
77.46018       	92.4045        	91.61317       	87.28667       	77.52654       	77.360466      	92.51459       	92.4546        	86.1042        	92.70692       	92.91023       	79.74433       	92.74844       	92.93873       	93.099655      	93.15212       	86.75195       	92.84496       	93.03424       	93.15981       	93.2482        	93.34701       	93.16925       	90.16809       	92.995705      	93.13934       	93.24451       	93.358864      	86.31166       	93.027916      	93.1379        	93.26401       	92.05352       	88.16006       	93.03184       	93.12575       	92.54487       	92.77582       	92.92803       	93.03008       	38.30036       	92.73816       	92.8999        	92.96358       	88.482635      	92.659775      	92.76729       	92.42157       	92.613205      	92.75704       	92.89996       	91.02999       	92.549194      	92.73473       	92.88091       	92.93399       	90.0753        	92.69064       	92.86275       	92.99369       	93.1118        	84.88114       	92.75323       	92.90944       	93.07499       	93.17989       	85.25655       	92.765686      	92.93613       	93.07089       	93.1595        	86.23416       	92.80614       	92.942085      	93.08238       	90.29324       	92.50094       	92.68112       	92.80729       	92.94165       	89.06112       	92.347786      	92.51047       	92.66834       	92.79346       	92.80818       	85.99529       	92.384705      	92.55193       	92.682396      	92.80516       	92.90452       	86.9814        	92.3226        	92.50655       	92.65144       	92.77026       	92.82615       	92.871605      	92.9179        	
87.07017       	85.29754       	92.4834        	92.19756       	79.78679       	76.94501       	84.66873       	92.445816      	86.76437       	92.67338       	92.44655       	89.31802       	92.80112       	92.94059       	89.75676       	92.74921       	92.9524        	93.07221       	93.13521       	89.82407       	92.81907       	92.994064      	93.12415       	93.22172       	93.1801        	88.36106       	93.01961       	93.160934      	93.27472       	92.81687       	86.247375      	93.06814       	93.17129       	91.36014       	88.65442       	92.94772       	93.09109       	91.74648       	92.82225       	92.929756      	93.06239       	89.941475      	92.730255      	92.86348       	92.74575       	87.20602       	92.74773       	92.8857        	87.828026      	92.60977       	92.790985      	92.93042       	82.117096      	92.54629       	92.73152       	92.885765      	92.90773       	90.33451       	92.693855      	92.87103       	93.004166      	93.12462       	84.36241       	92.73083       	92.92341       	93.05287       	93.175705      	82.898636      	92.76758       	92.918076      	93.076         	93.13909       	89.20407       	92.77068       	92.94574       	93.04202       	89.95522       	92.46802       	92.65967       	92.79623       	92.9068        	92.54618       	92.29712       	92.47061       	92.60936       	92.76545       	92.90457       	90.34987       	92.268936      	92.47768       	92.6303        	92.76746       	92.894035      	92.844086      	86.19182       	92.390915      	92.50203       	92.58431       	92.66699       	92.71336       	
92.424355      	92.376495      	79.51107       	76.552895      	85.44567       	92.492         	87.45459       	92.43116       	76.337944      	88.04328       	92.74766       	88.35299       	92.708145      	92.819695      	90.322136      	92.753296      	92.93707       	93.06308       	89.63283       	92.686134      	92.89223       	93.027405      	93.14489       	93.229195      	79.8828        	92.92526       	93.065414      	93.19645       	93.25708       	88.55302       	93.05599       	93.164375      	89.08688       	92.97867       	93.10166       	89.25708       	92.89814       	93.0391        	92.24134       	92.70356       	92.835594      	92.9613        	84.37527       	92.664         	92.80988       	92.24067       	89.625206      	92.715355      	92.834915      	85.5475        	92.645424      	92.78824       	92.8237        	84.769325      	92.67046       	92.81718       	92.96394       	91.919         	92.53944       	92.7623        	92.91213       	93.043205      	92.93775       	90.55773       	92.80103       	92.92185       	93.06666       	90.36411       	92.68704       	92.82893       	92.86215       	88.18414       	92.82601       	92.96044       	93.0229        	84.57675       	92.61142       	92.76085       	92.88363       	92.517456      	91.74814       	92.48778       	92.63494       	92.77177       	92.901985      	83.387535      	92.29474       	92.484886      	92.64415       	92.794525      	92.92201       	91.84609       	92.20862       	92.424774      	92.58515       	92.705925      	92.79456       	92.84209       	92.88464       	92.91834       	
89.979095      	80.39354       	79.96603       	79.64521       	78.580666      	86.93546       	88.47934       	92.5038        	91.172714      	92.447685      	92.63896       	91.311035      	92.579216      	92.834305      	92.96001       	93.02275       	88.67532       	92.8189        	92.96351       	93.108475      	93.20309       	92.317         	92.6963        	92.9038        	93.027794      	93.145035      	93.14735       	85.54528       	93.03458       	93.14485       	92.94782       	88.643196      	93.042595      	93.14012       	89.18143       	92.95364       	93.07104       	87.818726      	92.791245      	92.93972       	91.83943       	92.5234        	92.73976       	91.262245      	92.526665      	92.70257       	92.14723       	90.2449        	92.68764       	92.7749        	89.97543       	92.66824       	92.81862       	92.54855       	90.3743        	92.662155      	92.8347        	92.99371       	88.99772       	92.5388        	92.746475      	92.90695       	93.04948       	90.83235       	92.626         	92.80168       	92.964455      	92.9655        	86.32629       	92.77819       	92.92538       	87.22128       	92.713615      	92.84705       	92.99957       	91.540344      	92.50513       	92.66059       	92.81251       	92.92631       	86.67013       	92.350365      	92.521286      	92.68081       	92.79442       	92.90271       	88.673805      	92.311226      	92.49425       	92.64635       	92.78872       	92.9272        	87.125854      	92.31308       	92.48505       	92.64491       	92.74697       	92.80082       	92.844055      	92.877426      	
79.202126      	80.33639       	81.03565       	77.79082       	83.72693       	92.1488        	77.02253       	75.34987       	82.74765       	92.61395       	58.543896      	92.60954       	92.79815       	66.99315       	92.65435       	92.87448       	93.00931       	92.18136       	92.46643       	92.627655      	92.63381       	92.75221       	92.83529       	89.8311        	92.68541       	92.791016      	92.82657       	92.29634       	88.226204      	93.00018       	93.148315      	91.75923       	92.85173       	92.99277       	93.10297       	88.53025       	92.826294      	92.973976      	88.85634       	92.596596      	92.77561       	92.22723       	90.91093       	92.69633       	85.791725      	92.519295      	92.606735      	85.77456       	92.602554      	92.75384       	85.28623       	92.59417       	92.7623        	92.34795       	89.88511       	92.62626       	92.79838       	92.934784      	90.61546       	92.269585      	92.44763       	92.53365       	92.623184      	92.58754       	90.588806      	92.69686       	92.89492       	93.00432       	86.58421       	92.59206       	92.73095       	92.74348       	88.33867       	92.70979       	92.83994       	92.98718       	86.79853       	92.41546       	92.59651       	92.73955       	92.84883       	91.73427       	92.27499       	92.464554      	92.61848       	92.77521       	92.89228       	91.760735      	92.222885      	92.42876       	92.5767        	92.72872       	92.888214      	92.92651       	89.51378       	92.39668       	92.53487       	92.60735       	92.663155      	92.69879       	
