# www.neaspec.com
# Scan:	 	Whitelight Imaging
# Project:	 	20251007_PS
# Description:	 	
# Date:	 	10/07/2025 11:32:10
# Scanner Center Position (X, Y):	[µm]	49.99	50.01	 
# Rotation:	[°]	0	 	 
# Scan Area (X, Y, Z):	[µm]	5.000	5.000	0.000
# Pixel Area (X, Y, Z):	[px]	100	100	1
# Interferometer Center/Distance:	[µm]	0.000	0.000	 
# Averaging:	 	1	 	 
# Integration time:	[ms]	5	 	 
# Wavenumber Scaling:	 	1.000000	 	 
# Laser Source:	 	4.5-15 µm nano-FTIR laser
# Detector:	 	R
# Target Wavelength:	[µm]	7.502	 	 
# Demodulation Mode:	 	Fourier
# Tip Frequency:	[Hz]	241,340.500	 	 
# Tip Amplitude:	[mV]	45.700	 	 
# Tapping Amplitude:	[nm]	70.684	 	 
# Modulation Frequency:	[Hz]	0.000	 	 
# Modulation Amplitude:	[mV]	0.000	 	 
# Modulation Offset:	[mV]	0.000	 	 
# Setpoint:	[%]	79.75	 	 
# Regulator (P, I, D):	 	4.206850	8.625812	1.000000
# Tip Potential:	[mV]	0.000	 	 
# M1A Scaling:	[nm/V]	0.426	 	 
# M1A Cantilever Factor:	 	1,000	 	 
# Q-Factor:	 	487.4	 	 
# Version:	 	2.1.11536.0
75.974236      	73.12307       	78.773384      	80.3103        	76.31973       	78.265564      	76.20011       	77.26377       	77.47605       	78.60029       	75.96108       	81.18907       	91.103485      	91.27399       	85.55856       	91.249374      	91.19521       	90.84212       	90.52742       	91.2155        	91.382034      	89.67864       	92.37754       	92.59601       	92.43394       	90.30252       	92.80803       	92.78814       	92.61308       	90.39208       	92.927864      	92.872574      	92.725655      	88.127426      	92.86654       	92.951164      	92.79087       	92.63242       	83.88793       	92.949905      	92.85675       	92.74429       	92.55025       	92.34026       	92.88012       	92.73724       	92.605385      	88.32766       	92.823784      	92.71715       	90.58109       	92.61422       	92.646736      	88.64384       	92.13077       	92.55732       	86.19112       	92.59774       	86.506485      	78.80408       	80.24169       	74.42246       	75.49556       	76.13185       	79.878494      	90.597084      	83.49702       	91.99422       	74.752625      	79.73587       	92.54877       	81.951294      	75.79555       	79.88894       	78.74118       	76.12891       	77.93877       	74.39913       	80.43157       	92.17294       	92.75225       	92.51831       	89.00743       	92.74665       	92.17861       	92.12757       	92.72717       	86.888336      	92.7266        	92.753365      	89.31085       	92.802864      	92.78543       	87.643524      	92.573845      	92.6403        	54.18386       	92.60524       	82.753746      	76.91264       	
78.445145      	76.12005       	75.07749       	74.262825      	80.19486       	77.16139       	78.19304       	77.11081       	77.84717       	76.15748       	76.10258       	92.293976      	92.08141       	89.0867        	92.48297       	92.26158       	85.08924       	92.548134      	92.455376      	92.224396      	80.002815      	92.67158       	92.502846      	92.280525      	86.96147       	92.789894      	92.640114      	92.42743       	86.498314      	92.943855      	92.82522       	92.68284       	90.015465      	92.927605      	92.863716      	92.73738       	92.55806       	91.766655      	92.970055      	92.85971       	92.74662       	92.545         	92.13314       	92.87754       	92.78169       	92.62244       	90.115906      	92.87038       	92.743324      	92.59429       	89.42296       	92.784744      	92.62076       	88.45296       	92.70974       	92.60489       	86.434494      	92.659485      	91.45013       	77.74984       	78.167534      	76.92403       	78.36076       	78.38048       	92.52191       	82.9547        	92.32435       	90.01055       	92.51889       	83.821014      	92.53661       	82.88466       	92.52035       	77.1624        	77.70254       	78.09094       	76.27148       	79.002075      	92.66992       	86.10382       	92.52961       	92.6998        	87.28448       	92.55389       	92.696465      	89.149574      	92.77245       	92.68618       	87.22844       	92.899216      	92.767426      	89.35541       	92.64316       	92.624596      	91.45945       	91.14278       	92.68497       	89.18795       	92.46378       	86.7927        	
78.93325       	77.65984       	74.64848       	75.163925      	76.33462       	77.796486      	79.032295      	77.839714      	78.11495       	78.49426       	79.08082       	72.931564      	92.2804        	92.17681       	89.76787       	92.424164      	92.23345       	87.04752       	92.50762       	92.45586       	92.222275      	82.766525      	92.647446      	92.455925      	91.944         	92.23191       	92.76809       	92.60144       	90.15374       	92.39368       	92.91988       	92.78942       	92.62025       	90.65975       	92.93612       	92.807655      	92.70917       	87.96114       	92.964935      	92.89017       	92.7631        	92.597786      	89.83613       	92.86523       	92.76055       	92.60278       	77.494225      	92.86499       	92.75514       	92.611244      	91.60853       	92.793144      	92.62394       	85.26579       	92.748604      	92.621155      	85.33746       	92.63907       	92.5319        	90.17719       	92.53472       	80.03253       	78.8014        	56.370476      	92.61754       	87.354744      	92.616615      	85.42253       	92.480835      	84.05501       	77.47257       	78.984726      	82.78641       	78.82371       	77.55733       	77.164246      	92.39185       	72.816154      	75.84435       	92.668304      	92.65966       	88.82229       	92.85049       	92.66089       	70.88155       	92.867714      	92.63971       	90.42202       	92.8497        	92.64169       	92.18186       	92.8899        	92.689354      	89.05529       	92.80934       	92.588425      	89.88328       	92.62733       	79.86556       	78.243835      	
78.7868        	77.66646       	76.262764      	77.725494      	77.16622       	77.000656      	78.87152       	78.12841       	78.04943       	77.785065      	77.949295      	78.34222       	78.05159       	76.48111       	92.32263       	92.08643       	89.92349       	92.32506       	92.08638       	90.02224       	92.47536       	92.272766      	80.59931       	92.58019       	92.38792       	85.13091       	92.738525      	92.56703       	92.354515      	90.82135       	92.88          	92.753174      	92.55382       	90.55813       	92.91073       	92.800934      	92.66227       	87.148224      	92.92991       	92.85254       	92.68473       	88.844696      	92.46825       	92.81632       	92.687355      	85.09514       	92.63962       	92.79136       	92.64863       	90.305984      	92.81927       	92.67499       	87.633255      	92.179085      	92.64603       	89.30625       	92.69007       	92.50361       	84.612206      	92.62451       	86.991646      	92.66595       	89.71213       	92.342125      	90.03134       	92.13569       	92.59669       	87.38176       	92.66354       	87.66914       	92.54447       	78.64357       	79.22709       	78.87995       	77.61287       	78.2044        	80.10104       	78.51796       	92.52459       	78.605064      	83.33756       	92.82184       	92.596115      	86.184845      	92.53773       	92.44467       	92.005585      	92.81712       	89.42589       	92.87752       	92.76138       	85.89214       	92.81021       	92.67432       	71.32182       	92.690636      	87.42029       	92.491806      	82.114914      	79.51231       	
79.703445      	77.731964      	76.16907       	76.06026       	77.12318       	77.83647       	78.154         	79.030136      	78.40576       	77.57091       	79.46954       	77.92796       	75.464874      	91.89736       	91.45387       	76.83724       	73.552185      	91.75613       	87.158226      	92.06341       	92.15505       	86.17052       	92.424255      	92.17161       	88.79694       	92.65689       	92.4816        	88.57088       	92.75515       	92.65313       	92.46629       	80.97824       	92.8697        	92.773796      	92.643814      	86.58228       	92.873505      	92.827515      	92.66403       	90.251274      	92.74377       	92.81783       	92.67555       	90.94873       	91.73912       	92.76766       	92.60717       	87.578865      	92.80737       	92.70807       	92.54225       	86.2409        	92.70459       	92.511345      	90.52375       	92.62298       	87.1512        	92.475494      	92.58145       	85.68059       	92.71981       	92.55668       	91.366714      	92.65976       	86.29532       	92.70336       	92.50899       	91.3176        	92.581345      	87.06846       	92.626076      	86.08127       	92.51668       	78.55702       	80.59968       	75.7691        	78.753006      	77.94573       	79.06811       	77.33114       	78.19009       	73.46714       	87.209465      	92.83568       	92.60382       	90.605965      	92.84109       	92.6421        	91.60492       	92.83028       	85.92604       	92.56162       	92.77805       	85.1782        	92.34368       	92.632774      	86.543205      	92.60347       	78.60453       	78.90072       	
79.93241       	78.21091       	76.71832       	76.85307       	76.467865      	78.32594       	79.76544       	78.863594      	78.462585      	79.00312       	78.13792       	78.142914      	79.04636       	78.036865      	78.01171       	77.47211       	75.78816       	75.66434       	76.27771       	91.82916       	91.963         	91.59672       	92.13386       	79.84666       	92.302376      	87.033676      	92.585815      	92.40242       	85.60396       	92.75817       	92.64187       	92.47956       	77.2705        	92.8486        	92.74047       	92.61252       	90.50473       	92.84737       	92.75093       	92.62704       	74.040474      	92.81657       	92.71351       	92.55795       	83.79761       	92.73322       	92.592064      	88.97742       	92.790276      	92.667274      	92.49434       	91.92492       	92.694786      	92.4943        	90.306816      	92.70039       	92.48985       	89.629776      	92.640205      	92.1931        	92.22604       	92.7101        	85.807045      	92.43446       	92.6712        	88.74518       	92.75321       	92.58928       	89.50893       	92.72015       	89.66156       	92.58006       	84.32768       	77.438194      	77.790306      	78.304245      	76.414055      	76.45007       	79.2251        	78.99211       	78.228905      	77.60846       	69.62559       	92.8169        	92.6108        	86.00399       	92.85011       	92.641556      	86.32156       	92.83634       	92.63192       	90.05464       	92.75069       	91.7383        	92.35252       	92.65344       	89.71302       	92.50729       	79.4749        	78.47626       	
79.91924       	77.963615      	77.7787        	79.51402       	75.00142       	78.25883       	79.23966       	78.426155      	79.70741       	78.19423       	79.33996       	78.93943       	78.41609       	78.48578       	78.08185       	78.281235      	77.22038       	76.531006      	79.91608       	76.27911       	92.154396      	86.51896       	54.829998      	92.2049        	80.0767        	91.95026       	92.31302       	86.503746      	92.617905      	92.471054      	88.08602       	92.72865       	92.68632       	92.5219        	85.484375      	92.7825        	92.687935      	92.51509       	84.46465       	92.79189       	92.67723       	92.41238       	90.948135      	92.70752       	92.53827       	88.12295       	92.74853       	92.60685       	92.340485      	92.12346       	92.731735      	92.58903       	90.425064      	92.828514      	92.6555        	90.88309       	91.71615       	92.66641       	92.4463        	91.53352       	92.68561       	88.58155       	92.41563       	92.65635       	86.04386       	92.66729       	92.630135      	89.37503       	92.77546       	92.56589       	85.94439       	92.576355      	76.82189       	80.84955       	81.14724       	79.53654       	78.6319        	78.808815      	78.71974       	76.607414      	79.36466       	77.05916       	76.10382       	78.98544       	89.36661       	92.42596       	92.21111       	89.60265       	92.45064       	92.25968       	90.291626      	92.21475       	92.05228       	90.62548       	92.02308       	87.07801       	91.85191       	83.49814       	78.816605      	78.61819       	
79.706406      	78.32153       	77.96409       	78.29691       	77.78928       	78.6806        	78.92222       	78.89716       	78.55445       	79.58995       	80.28332       	77.770325      	78.88979       	78.12658       	78.28164       	78.615         	77.49944       	77.5009        	74.452675      	91.966995      	92.128296      	88.09522       	92.18239       	80.60709       	92.179955      	82.84395       	92.31487       	88.40318       	92.484764      	92.38815       	86.694954      	92.66269       	92.52887       	88.415184      	92.73719       	92.66238       	92.50991       	87.511925      	92.77653       	92.65281       	92.50966       	92.05659       	92.73546       	92.58382       	87.769485      	92.59642       	92.60253       	92.43434       	88.9876        	92.74522       	92.56205       	84.648125      	92.787415      	92.67908       	92.45042       	91.240715      	92.73855       	92.49626       	71.671036      	92.766335      	92.573235      	75.2898        	92.795395      	92.62866       	88.12435       	92.71795       	92.62901       	75.02973       	92.728096      	92.51778       	90.0735        	92.59345       	73.095795      	90.140305      	77.7678        	78.64111       	75.58731       	77.8166        	77.96          	79.385796      	78.32074       	77.82789       	79.75628       	78.335915      	77.190025      	78.20694       	92.68931       	92.54146       	85.718895      	92.77483       	85.716896      	92.415245      	92.63522       	77.29736       	92.63927       	77.97199       	77.246574      	78.21516       	79.17679       	77.461784      	
79.69556       	78.3864        	78.14894       	78.518295      	78.06478       	79.41118       	78.50507       	78.87727       	78.729485      	80.58983       	79.417465      	76.24111       	77.95736       	78.58957       	78.701935      	78.15494       	78.3325        	77.0174        	79.60795       	75.45408       	75.00275       	76.292885      	76.644104      	79.33671       	77.30314       	74.157364      	92.445625      	92.34229       	88.47716       	92.55404       	92.38788       	83.22868       	92.55657       	92.37529       	90.43254       	92.72382       	92.57292       	87.78279       	92.58716       	92.59424       	92.49139       	89.7156        	92.73826       	92.61586       	92.41869       	91.21884       	92.65899       	92.47113       	82.43893       	92.78308       	92.604576      	87.25322       	89.82797       	90.57302       	91.09437       	89.20165       	90.250656      	90.80171       	90.808304      	88.640915      	87.12237       	88.00877       	89.12667       	85.40867       	92.09735       	92.0086        	88.943825      	92.23658       	91.97158       	83.985405      	92.271706      	86.782745      	90.14783       	91.021164      	76.22658       	78.96046       	78.87425       	76.64072       	79.5072        	79.32687       	76.63513       	77.77942       	77.294014      	77.3543        	79.01372       	76.04109       	74.593475      	75.21412       	85.161736      	92.05667       	75.58807       	73.976         	77.912605      	79.39073       	78.06166       	78.790665      	78.95351       	78.610916      	79.34455       	76.98546       	
79.59243       	78.27803       	76.89103       	78.28085       	78.693054      	78.34912       	78.40601       	79.11173       	77.828064      	78.724365      	78.44701       	77.395256      	78.79258       	78.62194       	79.05249       	77.06014       	76.46273       	77.96256       	78.39756       	77.312584      	77.59652       	77.98789       	78.171165      	77.04216       	74.97227       	82.4561        	92.11036       	90.78757       	92.2725        	86.4146        	92.48441       	92.426254      	87.15136       	92.52004       	92.44434       	85.713104      	92.65061       	92.601295      	92.44639       	91.64119       	92.63245       	92.49504       	77.60829       	92.69093       	92.52292       	85.31261       	92.60572       	92.64533       	92.46891       	78.8142        	92.75274       	92.57576       	84.74658       	92.767365      	92.64063       	92.43649       	91.80796       	92.7383        	92.54439       	87.03633       	92.816734      	92.61954       	90.11441       	92.82585       	92.660484      	85.55633       	92.84437       	92.639275      	90.612335      	92.791504      	92.569626      	91.25395       	92.56395       	76.39038       	80.63013       	75.58081       	77.14803       	78.17487       	78.06291       	77.888954      	78.61959       	77.80894       	74.687805      	77.87195       	77.101974      	75.6649        	78.6239        	76.31941       	77.86888       	74.34491       	78.30025       	78.85023       	77.852104      	79.192116      	79.20979       	79.20973       	80.36256       	76.06868       	77.15872       	79.69039       	
79.4118        	78.00157       	79.04129       	79.77735       	77.4316        	79.49542       	79.25424       	79.33819       	78.185326      	79.42348       	78.52277       	78.331345      	78.42418       	78.740265      	78.36955       	77.33501       	77.9478        	78.127594      	77.638565      	76.99242       	77.67141       	79.60853       	78.18168       	77.21575       	79.95125       	85.85417       	92.12795       	90.3875        	92.24693       	85.12499       	92.41653       	87.09495       	91.95451       	92.41141       	89.486         	92.54485       	92.50679       	85.727745      	92.61706       	92.55097       	85.65625       	92.13701       	92.64329       	92.47052       	84.898834      	92.74517       	92.597496      	92.39341       	91.70915       	92.64069       	92.47929       	87.00083       	92.73429       	92.541374      	89.98689       	92.79329       	92.62698       	86.16604       	92.34446       	92.593445      	92.36881       	92.06952       	92.63731       	90.17508       	92.583954      	92.471054      	84.94524       	92.789055      	84.4962        	77.322685      	79.14584       	80.74093       	79.83848       	80.77216       	80.64443       	79.97664       	77.19305       	80.682         	79.75985       	79.40449       	77.81221       	77.33851       	78.718704      	77.46421       	79.077896      	77.44326       	77.64181       	77.60561       	77.09988       	77.40374       	76.90938       	77.70215       	78.22621       	78.79039       	79.09326       	77.8929        	79.21024       	77.82308       	76.796005      	79.740074      	
79.79957       	78.83281       	77.747696      	77.04186       	79.59968       	78.22744       	78.36288       	79.20106       	77.97024       	78.34664       	78.60721       	78.87136       	78.258896      	77.68243       	77.86758       	77.717606      	77.744675      	78.31885       	77.93605       	78.43683       	78.13248       	78.21339       	77.652306      	75.82732       	77.33894       	75.793495      	90.34752       	87.7234        	91.99522       	87.20636       	75.58756       	77.607346      	92.345146      	89.508736      	92.32448       	92.42976       	86.76831       	76.2282        	77.1392        	77.27328       	77.29773       	92.49605       	92.52127       	92.33738       	89.823524      	92.70252       	92.53843       	90.16576       	92.64657       	92.57946       	90.18852       	92.13219       	92.59854       	88.43653       	92.54285       	92.683846      	92.44664       	88.964615      	92.73899       	92.52659       	61.10803       	92.800186      	92.595985      	85.2998        	92.738495      	92.550865      	92.1975        	92.70547       	88.59897       	92.69496       	92.656876      	86.594795      	92.57741       	81.35302       	77.27543       	80.38402       	81.65588       	77.238815      	79.42133       	78.76224       	77.45652       	77.562836      	77.947044      	77.32459       	76.54476       	77.596466      	77.71091       	78.87259       	78.03729       	75.95494       	77.899895      	77.084854      	75.92749       	79.21298       	78.368095      	77.51244       	79.517784      	77.675224      	78.96277       	76.8641        	
80.20055       	79.02697       	78.15152       	78.05041       	78.86623       	78.70797       	79.11323       	78.71453       	79.73386       	77.74452       	78.53304       	79.09224       	78.34044       	78.55642       	78.709435      	77.18714       	78.26211       	78.07152       	76.914505      	77.59965       	78.6379        	78.40254       	79.13191       	78.06332       	77.407715      	77.809296      	71.89949       	76.24607       	77.88023       	76.12272       	91.671906      	89.6032        	92.23878       	87.60098       	91.46406       	92.400604      	87.85452       	92.04103       	92.56782       	92.40123       	89.15204       	92.67415       	92.50352       	84.37854       	92.39914       	92.615         	92.42429       	87.25956       	92.77169       	92.61213       	92.37327       	91.43112       	92.657875      	92.43951       	86.01735       	92.62188       	92.51548       	87.76074       	92.77528       	92.643555      	90.11113       	92.68462       	92.67643       	90.27567       	92.42304       	92.644684      	84.95122       	92.78735       	92.64916       	87.75097       	92.77157       	92.56624       	78.85797       	78.69264       	79.53862       	77.97832       	77.933395      	80.11326       	77.71582       	79.02626       	78.57292       	78.14486       	78.57169       	76.32781       	78.54593       	76.249565      	77.4041        	76.6778        	79.14415       	75.99774       	79.303535      	76.4728        	79.82582       	79.30217       	78.179115      	78.66564       	78.75057       	79.39703       	78.08574       	78.11505       	
79.814674      	78.222145      	78.38404       	78.986855      	77.64097       	78.41339       	79.12704       	79.24617       	78.3073        	79.15548       	79.12964       	77.93028       	78.59909       	78.27137       	77.1959        	76.78317       	77.394264      	79.52686       	76.793526      	77.39056       	77.259834      	78.67403       	78.919975      	79.47086       	77.57045       	76.33106       	77.70742       	76.15398       	77.6776        	76.705086      	76.19632       	90.79719       	92.16133       	89.63828       	92.259605      	92.091354      	91.823814      	92.51511       	92.33166       	89.54647       	92.619026      	92.47187       	92.153244      	91.95741       	92.621506      	92.4311        	84.863396      	92.794235      	92.60999       	90.13171       	92.58825       	92.63387       	92.432175      	89.3454        	92.745964      	92.52628       	80.80622       	92.75851       	92.566246      	87.65894       	92.77101       	92.61861       	90.27693       	92.56939       	92.61144       	84.88749       	92.739746      	92.550255      	78.90804       	92.69218       	85.36065       	91.437325      	92.42069       	89.4495        	92.32496       	91.73784       	89.54252       	92.38831       	89.72789       	78.62607       	79.289986      	92.55597       	92.48686       	86.07421       	92.701485      	88.03193       	92.56744       	92.67135       	86.20779       	92.58461       	92.5943        	81.23842       	78.73542       	78.79839       	78.95528       	75.3006        	76.41147       	78.44566       	79.363495      	76.83207       	
80.0097        	78.3188        	77.092636      	77.69286       	78.95908       	79.629105      	79.37165       	79.39908       	79.53847       	79.270836      	78.15253       	78.44163       	78.630104      	77.47798       	75.066246      	76.85869       	78.52176       	79.10023       	80.82243       	78.694305      	78.09119       	79.610374      	74.66739       	80.83708       	75.50126       	77.99049       	77.29145       	77.7046        	77.47395       	75.098076      	76.32789       	92.1305        	89.247055      	92.27602       	92.27208       	89.22378       	92.53742       	92.41095       	89.17694       	92.380844      	92.51286       	92.340034      	84.62363       	92.66901       	92.471054      	86.30901       	92.52153       	92.706604      	92.51024       	87.01473       	92.82976       	92.64523       	90.60335       	91.65284       	92.7053        	92.46948       	90.962585      	92.763855      	92.56718       	87.34785       	92.821594      	92.61227       	87.35069       	92.51082       	92.58151       	88.401184      	92.71778       	92.60494       	88.25085       	92.734535      	92.58798       	88.97934       	92.45715       	88.2136        	92.42804       	84.850075      	92.24462       	92.354126      	89.48026       	92.477554      	39.888294      	92.69804       	92.57019       	84.15301       	92.7277        	92.53106       	89.55585       	92.74785       	92.593666      	88.638405      	92.610016      	78.65031       	79.663826      	79.96781       	78.84981       	79.380615      	77.69505       	79.204956      	77.18056       	78.03529       	
80.03218       	77.895615      	77.3514        	78.370346      	80.12275       	79.470314      	79.1377        	78.81823       	78.25714       	78.93889       	77.28129       	76.6619        	77.36469       	77.32419       	75.55755       	78.19245       	77.83062       	80.15922       	78.48635       	79.25606       	76.66522       	78.34829       	75.91028       	77.96471       	79.37602       	73.48877       	77.66867       	77.33134       	76.96097       	75.13469       	77.18203       	77.54437       	91.872116      	92.22085       	78.91108       	92.44458       	92.285706      	89.715965      	92.54897       	92.399605      	84.35363       	92.578156      	92.448296      	91.81544       	91.76016       	92.669044      	92.464745      	84.608536      	92.81543       	92.67719       	92.44546       	92.03178       	92.6097        	85.11493       	92.4626        	92.50537       	88.18395       	91.85812       	92.728714      	92.51136       	78.526924      	92.56125       	92.48038       	68.59345       	92.69927       	92.540726      	88.21852       	92.69283       	92.49767       	70.758316      	92.52012       	86.75599       	92.42884       	86.54343       	75.85795       	77.59745       	92.559456      	92.32043       	91.98665       	92.626495      	90.45273       	92.441246      	92.635086      	85.104996      	92.772736      	92.6846        	88.69827       	92.71638       	92.71053       	86.25642       	92.58733       	92.63953       	79.35496       	77.878876      	78.45144       	79.421455      	80.212746      	78.157776      	77.19911       	78.14141       	
79.65617       	79.72867       	79.27891       	77.19017       	78.43029       	79.43324       	77.239784      	79.081055      	78.791         	77.8801        	78.583885      	77.10936       	75.00042       	79.27842       	75.1265        	77.21718       	78.85739       	79.83602       	77.84892       	77.885826      	76.36493       	76.25936       	76.73147       	77.50298       	78.38367       	76.972305      	77.54433       	79.4005        	76.06713       	78.72196       	75.53802       	77.62471       	84.419914      	92.27399       	88.29845       	91.9351        	92.40248       	92.225716      	89.73725       	92.23764       	92.21098       	89.95022       	92.49003       	92.255974      	90.23907       	92.688965      	92.47113       	90.37512       	92.79112       	92.64985       	92.41293       	86.4167        	92.712364      	92.481285      	90.07364       	92.7197        	92.46716       	71.268456      	92.811325      	92.629364      	87.701744      	92.34415       	92.71635       	92.4368        	87.73678       	92.6522        	92.44608       	90.5861        	92.51965       	79.832466      	78.019936      	81.64136       	79.463684      	79.637825      	92.39256       	87.97512       	92.158646      	92.44353       	90.003395      	92.64579       	92.45766       	78.86293       	92.72597       	92.55298       	77.3566        	92.78559       	92.59983       	47.884415      	92.717224      	92.573586      	87.39977       	92.65277       	86.45068       	92.116394      	92.52578       	76.98954       	79.923904      	77.43916       	77.8286        	77.49585       	
80.17242       	78.99151       	77.46214       	77.96733       	77.336296      	79.04193       	78.3067        	80.54666       	77.524414      	80.12666       	78.34098       	77.83294       	78.32156       	77.64536       	77.07431       	77.23551       	78.57991       	76.922295      	78.05546       	79.156815      	75.649315      	74.46476       	75.67769       	77.53329       	78.46039       	78.14768       	78.42626       	79.50679       	78.2755        	76.20205       	77.67226       	81.64369       	91.91119       	92.08643       	90.8474        	92.331955      	92.145355      	80.3064        	92.39192       	92.20106       	80.41424       	92.359146      	92.12238       	88.028984      	92.6254        	92.43936       	86.44798       	92.73881       	92.67776       	92.45471       	84.834076      	92.66152       	92.4617        	85.262115      	92.67508       	92.57483       	92.35417       	92.37032       	92.67216       	92.44935       	90.095566      	92.6673        	92.45538       	78.25489       	92.6084        	92.39259       	87.03242       	92.452324      	81.091934      	75.83468       	76.744995      	81.17208       	80.34917       	76.70937       	92.50816       	92.28209       	91.465805      	92.5676        	92.35789       	91.22849       	92.608665      	92.433174      	89.50188       	92.663574      	92.47526       	85.303276      	92.746376      	92.558716      	85.895706      	92.75732       	92.588295      	86.267876      	92.65339       	92.462944      	70.48127       	92.48638       	80.69448       	78.89731       	77.0535        	75.86976       	
78.93753       	77.24735       	77.80123       	77.725525      	76.00934       	76.13299       	79.03979       	78.98518       	78.40957       	79.89588       	78.92815       	75.03528       	76.47711       	77.15082       	78.30306       	78.80138       	79.572945      	76.87444       	77.46717       	77.96402       	79.59543       	90.054596      	78.95679       	76.605446      	77.63288       	80.81323       	78.356804      	79.12887       	76.23377       	75.4473        	76.84061       	78.30881       	76.36895       	74.46851       	87.81306       	92.32381       	92.150986      	88.30132       	92.38985       	92.208786      	80.97232       	92.41783       	92.23289       	72.96694       	92.691734      	92.528755      	92.28246       	91.8829        	92.765976      	92.558105      	88.02448       	92.698364      	92.651794      	92.416794      	92.02613       	92.73297       	92.49809       	80.39282       	92.77136       	92.5958        	85.528854      	92.68453       	92.56016       	88.08856       	92.52642       	92.450455      	76.5905        	92.45127       	80.95655       	75.005196      	75.75594       	77.03678       	77.69643       	75.37437       	82.82394       	92.50355       	90.987625      	91.91418       	92.56868       	92.40062       	89.05985       	92.67738       	92.48552       	76.45753       	92.77375       	92.61427       	85.4774        	92.754585      	92.63586       	87.3989        	92.73503       	92.60176       	85.60629       	92.67341       	92.49758       	85.667725      	92.26337       	88.4758        	92.43112       	78.04512       	
76.75659       	77.597336      	78.09308       	78.03205       	78.78619       	92.01159       	57.25493       	92.041664      	86.048744      	91.93161       	77.72408       	74.19102       	77.68256       	78.06197       	78.20964       	78.145905      	79.56299       	77.048615      	80.540726      	77.10876       	76.350586      	63.285755      	85.198715      	91.30777       	75.73769       	63.876064      	86.780525      	80.46804       	77.43944       	76.02426       	74.19755       	77.6368        	74.292435      	76.0692        	92.10135       	92.23283       	86.40864       	92.41193       	92.29737       	86.47688       	92.43922       	92.30415       	89.78771       	92.613434      	92.51909       	92.29999       	92.42793       	92.731895      	92.517006      	90.004265      	92.76071       	92.61539       	92.36186       	90.52061       	92.66133       	92.44635       	92.0629        	92.67752       	90.28811       	92.684074      	92.64096       	86.280235      	92.30527       	92.471375      	88.55738       	92.55522       	87.1049        	92.44675       	89.75739       	81.17211       	79.022385      	76.69054       	78.645454      	91.80329       	92.404434      	89.06751       	92.28017       	92.646545      	92.45867       	84.00876       	92.81489       	92.61518       	90.162636      	92.769485      	92.747345      	92.60434       	85.71162       	92.87349       	92.72436       	92.512596      	91.41555       	92.751076      	92.57666       	87.589645      	92.626526      	90.060036      	92.53006       	92.401115      	91.09837       	89.273285      	
79.41806       	78.46414       	78.58105       	78.587326      	78.44442       	77.29477       	78.20675       	92.076225      	82.047066      	76.63905       	78.1849        	77.21173       	78.51171       	77.21679       	75.73854       	79.50306       	80.33154       	77.210945      	77.16418       	77.71706       	77.18413       	76.5357        	78.5755        	79.35793       	78.49216       	79.457825      	79.14572       	77.85222       	79.55668       	79.02878       	77.078064      	73.998955      	77.211876      	76.46346       	92.00998       	85.67107       	91.58637       	92.36519       	87.20892       	92.066         	92.32142       	89.72439       	92.53088       	92.380455      	87.12102       	92.62128       	92.647995      	92.418045      	87.822556      	92.78457       	92.596214      	90.53479       	92.016815      	92.580925      	90.09541       	92.501724      	92.50987       	90.17381       	92.48418       	92.38119       	89.17362       	92.25755       	86.24582       	79.641914      	76.03236       	92.33705       	90.711044      	92.40637       	73.52158       	92.23338       	76.34802       	81.27808       	77.53257       	78.121414      	75.00747       	92.67899       	92.6456        	92.42921       	88.84106       	92.67433       	92.49062       	80.14194       	92.84062       	92.6808        	92.4807        	92.40522       	92.76722       	92.62024       	87.806244      	92.820915      	92.62742       	85.66086       	92.52306       	92.52022       	89.47149       	92.68618       	92.51736       	85.89657       	92.616615      	86.52009       	
79.84823       	77.565834      	77.50669       	63.419876      	91.92737       	63.31346       	91.80113       	91.23534       	91.37338       	77.94933       	76.00662       	78.07919       	74.44549       	76.83007       	79.67293       	77.9548        	76.383156      	77.60886       	77.00654       	62.255974      	84.32461       	77.8348        	76.78721       	75.89281       	79.5624        	78.50387       	78.871666      	77.54617       	77.44818       	77.20695       	75.094         	75.45268       	76.963974      	74.89093       	76.09432       	86.610954      	92.338326      	92.16948       	83.82968       	92.44643       	92.21901       	87.317894      	92.4538        	92.24328       	82.136925      	92.74232       	92.55965       	92.29007       	91.68029       	92.720955      	92.5253        	86.39041       	92.61577       	92.37          	79.64516       	92.588394      	92.32958       	89.33222       	92.49414       	87.202805      	92.42435       	88.02283       	77.654175      	80.309944      	77.101814      	76.07208       	80.26145       	75.468155      	81.11086       	76.34239       	78.14458       	77.09944       	66.88879       	92.56042       	92.31452       	90.04067       	92.73834       	92.554276      	89.44134       	92.7075        	92.64483       	92.44511       	91.47635       	92.75544       	92.578835      	89.55606       	92.84892       	92.720795      	92.52625       	80.418976      	92.84168       	92.66494       	75.11127       	92.778         	92.61461       	75.6421        	92.59837       	92.520515      	49.77336       	92.65554       	
78.89602       	78.27426       	77.59786       	78.60487       	91.26815       	85.745255      	90.40854       	85.60935       	91.99505       	80.099144      	78.71822       	78.07239       	78.11614       	78.369286      	77.35799       	78.34914       	75.60549       	76.68668       	76.37695       	76.80325       	78.696495      	79.18799       	80.23409       	77.10799       	79.77447       	77.75237       	78.81341       	77.41697       	77.61031       	75.513435      	76.17685       	76.858536      	76.66665       	76.180855      	77.477974      	92.37159       	92.249084      	85.25261       	92.54868       	92.34835       	89.66842       	92.58246       	92.34523       	87.19206       	92.66981       	92.48176       	87.25527       	92.23243       	92.65348       	92.430954      	85.55857       	92.55306       	89.06687       	92.43274       	92.39742       	83.75815       	92.502464      	88.33147       	92.531075      	86.98238       	90.662865      	85.389015      	80.19941       	78.34833       	77.95515       	80.375656      	79.99064       	82.561005      	75.9409        	79.11381       	78.618675      	92.54047       	92.33528       	88.84119       	92.61635       	92.43694       	86.74886       	92.77817       	92.66523       	92.44494       	90.79027       	92.76268       	92.55901       	89.03204       	92.84419       	92.72379       	92.50456       	90.15093       	92.87755       	92.701294      	87.84473       	92.758575      	92.77384       	91.294266      	90.722984      	92.739174      	90.37748       	91.942986      	92.63358       	87.90372       	
91.943         	87.87171       	56.95023       	91.91257       	90.84741       	84.55456       	89.796364      	91.43465       	89.97874       	77.19146       	75.22931       	75.99271       	80.12582       	77.89206       	78.203255      	75.60584       	77.28907       	75.013535      	75.004265      	75.07224       	77.31777       	79.62355       	77.82914       	76.53921       	76.69896       	78.3835        	77.02188       	80.08541       	74.659744      	77.285675      	74.72076       	76.509964      	76.798294      	74.39314       	75.686066      	91.131256      	92.14261       	85.48888       	92.46056       	92.24372       	87.00826       	92.62615       	92.459984      	92.20518       	91.29761       	92.59043       	92.34598       	91.15902       	92.63882       	92.4211        	88.50906       	92.57291       	92.35863       	88.554054      	92.43859       	71.0543        	92.4586        	86.06576       	92.37511       	89.83441       	81.47345       	77.60664       	75.93059       	92.32292       	85.17713       	92.34044       	87.35825       	92.41516       	85.803566      	92.517975      	88.51604       	92.01705       	92.493416      	90.027435      	92.473015      	92.62105       	92.45488       	77.91304       	92.77027       	92.57469       	87.62533       	92.6404        	92.72138       	92.55096       	88.5819        	92.86511       	92.737686      	92.52133       	81.746284      	92.91348       	92.73519       	92.53272       	92.177795      	92.815346      	92.60539       	39.371887      	92.80892       	92.61679       	72.40165       	92.69019       	
70.08152       	92.07866       	91.81977       	54.985268      	91.999176      	89.61939       	91.971436      	84.99925       	91.83899       	88.143974      	76.30931       	76.262245      	77.79723       	78.95766       	76.797005      	76.93805       	78.511185      	78.514725      	76.8596        	76.73401       	77.087944      	75.700806      	78.523834      	77.425804      	78.02269       	75.95692       	77.66629       	78.42314       	76.04493       	74.636566      	79.53573       	51.46119       	92.08135       	88.123535      	78.882675      	92.242195      	91.35449       	71.859955      	82.36713       	92.315155      	87.0282        	92.17175       	92.2715        	89.350334      	92.52818       	92.31615       	40.26532       	92.55399       	91.55515       	91.88334       	92.46824       	87.54627       	92.51683       	92.35112       	84.08448       	92.44161       	85.46322       	92.4598        	87.19931       	75.30724       	76.62041       	92.39365       	85.63942       	91.44804       	87.72401       	91.577835      	92.37543       	87.3985        	92.425735      	86.28258       	92.50027       	92.28282       	88.59388       	92.54684       	92.2939        	90.4783        	92.65589       	92.47702       	88.888954      	92.76408       	92.6833        	92.5005        	86.85419       	92.85034       	92.694176      	92.47446       	81.75199       	92.88044       	92.707436      	92.49681       	92.08533       	92.83344       	92.655075      	89.98857       	92.83755       	92.69431       	86.00728       	92.796936      	92.66399       	87.54793       	
92.07549       	61.717983      	92.03089       	92.00877       	86.18648       	92.0759        	87.953735      	92.028         	88.54798       	80.11222       	76.17571       	78.546036      	78.49356       	77.480865      	76.88159       	77.44967       	78.93277       	78.23206       	78.15177       	77.667435      	76.72604       	76.32705       	77.96224       	76.25352       	77.29981       	77.73361       	77.091774      	78.70496       	75.99056       	77.07537       	91.90118       	85.60833       	92.09501       	84.48221       	92.279274      	92.108154      	87.87537       	92.27416       	86.94087       	92.291954      	87.07502       	91.64038       	92.23219       	81.98978       	91.7386        	91.67467       	75.59845       	92.56533       	92.33129       	89.18997       	92.495255      	85.48523       	92.54372       	92.344635      	87.021935      	92.46581       	89.43824       	92.38874       	87.71274       	91.90879       	92.45287       	86.16151       	92.522415      	89.79946       	92.50188       	89.38734       	91.7458        	92.42014       	86.34984       	92.572464      	92.40607       	87.79216       	92.52409       	92.3137        	91.05113       	92.64946       	92.444084      	87.24388       	92.77213       	92.632195      	92.44572       	81.35219       	92.87641       	92.667366      	92.46738       	89.93935       	92.863075      	92.6498        	88.6132        	92.92474       	92.80614       	92.57209       	84.19976       	92.828415      	92.63107       	87.81475       	92.75434       	92.58007       	86.58454       	92.74661       	
86.9989        	92.15937       	92.066086      	85.25355       	92.015465      	92.0032        	80.66496       	92.094246      	82.481834      	77.41215       	77.67853       	78.06682       	75.391365      	75.76552       	77.5121        	77.703         	76.88361       	78.13487       	76.49209       	78.42549       	77.9456        	77.45293       	75.371994      	79.37303       	75.55615       	76.888466      	75.846214      	73.18465       	89.196106      	91.68755       	91.18467       	86.41277       	92.17655       	92.03728       	89.358376      	92.30436       	86.59584       	91.962364      	92.29776       	87.26647       	92.37742       	89.48839       	92.354866      	92.26688       	88.27813       	92.45455       	87.23122       	92.11589       	92.40177       	79.44426       	92.44184       	88.25794       	92.23326       	92.25556       	75.45297       	92.4334        	85.34106       	92.42651       	92.44915       	86.58412       	92.32387       	90.53919       	91.565506      	92.29156       	85.63701       	91.96558       	85.9022        	92.22674       	92.420616      	87.84366       	92.57128       	92.39361       	85.52336       	92.57349       	92.38734       	90.15182       	92.70866       	92.56141       	84.87287       	92.61979       	92.661156      	92.47535       	86.4841        	92.88016       	92.69172       	92.4543        	91.07482       	92.87067       	92.67407       	87.340096      	92.62684       	92.82293       	92.6446        	84.69416       	92.83314       	92.68986       	84.86612       	92.7319        	92.65186       	88.59865       	
86.64127       	92.07711       	87.91242       	90.19178       	92.07691       	87.27337       	79.97164       	75.78424       	76.73953       	78.95002       	77.94998       	76.05768       	77.19132       	77.43321       	76.83685       	78.475204      	77.722145      	75.9591        	78.01627       	77.94083       	78.55284       	76.81732       	77.99355       	74.594124      	77.27944       	77.13163       	75.138115      	75.49341       	90.61888       	85.98736       	91.239685      	85.98309       	92.076584      	92.05451       	88.83492       	92.3296        	86.55489       	92.19784       	92.30641       	89.240166      	92.367165      	88.241714      	92.38372       	92.295105      	87.46701       	92.45614       	84.743965      	92.19542       	92.43691       	85.12603       	92.53199       	92.29344       	91.68638       	92.522896      	89.086044      	92.49616       	91.13172       	90.7793        	92.257484      	84.07721       	92.45986       	89.12349       	92.42599       	92.4391        	85.3666        	92.54877       	92.35915       	90.231514      	92.47721       	86.6478        	91.99094       	92.4054        	90.19556       	92.196495      	92.161095      	84.78951       	92.62135       	92.610275      	92.39901       	89.20729       	92.422424      	92.35228       	90.09525       	92.85997       	92.707535      	92.485535      	87.642845      	92.88411       	92.684         	87.79116       	92.73403       	92.82541       	92.61267       	79.90999       	92.7713        	92.58527       	46.24736       	92.64613       	92.43362       	82.99451       	
92.15084       	86.66268       	88.45392       	92.13717       	92.006195      	80.80945       	77.990616      	79.22176       	76.5314        	78.05101       	77.29819       	77.836105      	77.40531       	79.01276       	79.65408       	77.74269       	78.33825       	77.66461       	76.12257       	77.865425      	78.895355      	76.52943       	73.90721       	76.40686       	78.301414      	77.75677       	73.664955      	72.90964       	91.75043       	86.85589       	92.058846      	83.5956        	92.099205      	77.526985      	92.32502       	92.09787       	90.71339       	92.43059       	85.7902        	92.17108       	92.37932       	86.49318       	92.44862       	89.20505       	91.77419       	92.37883       	77.989235      	92.46097       	89.62727       	92.5522        	92.34849       	88.95085       	92.500824      	89.05561       	92.601585      	92.283295      	91.31826       	92.458984      	89.20577       	92.59991       	92.38985       	91.3724        	92.56166       	87.82538       	92.47709       	92.38792       	72.727806      	92.60513       	92.39864       	81.148384      	92.55761       	92.37571       	80.9954        	92.56473       	92.35056       	88.83156       	92.5254        	92.44133       	88.178955      	92.559044      	92.4838        	89.6336        	92.48226       	92.5892        	92.463715      	90.434654      	92.9016        	92.70854       	85.668816      	92.90137       	92.82496       	91.268745      	92.167725      	92.72361       	86.074326      	92.38185       	92.65924       	90.255066      	92.22437       	92.641426      	
52.5771        	91.852295      	92.08199       	86.27607       	77.908035      	76.74767       	78.20171       	77.837494      	78.40964       	78.01608       	77.79105       	77.906944      	77.19207       	78.01773       	78.363625      	76.522484      	79.098526      	77.249405      	78.57752       	75.004         	77.56625       	75.8585        	75.68174       	78.30709       	75.5311        	76.61125       	77.68587       	80.8642        	92.03398       	82.795685      	92.00953       	89.88444       	92.268585      	88.7092        	92.43979       	89.12329       	92.12717       	92.376076      	85.52531       	92.451256      	92.30903       	85.58432       	92.409904      	89.099945      	92.49915       	89.79131       	92.297066      	92.364395      	88.973045      	92.4322        	85.53489       	92.55641       	92.39506       	90.61249       	92.45839       	86.22955       	92.531876      	88.36693       	92.48598       	92.412796      	81.70091       	92.59934       	86.78744       	92.21461       	92.56023       	90.2903        	92.56301       	92.477844      	88.45934       	92.59113       	92.41668       	76.91087       	92.55226       	87.41994       	92.41027       	92.62315       	92.41041       	89.235634      	92.684845      	92.48182       	76.53849       	92.81959       	92.63309       	85.607666      	92.6745        	92.86207       	92.62637       	87.4453        	92.94623       	92.75814       	91.83667       	92.35304       	92.76274       	92.16106       	91.36092       	92.73694       	92.487366      	88.770035      	92.70568       	92.47576       	
78.024765      	77.03233       	90.553795      	92.07296       	84.936356      	76.96981       	77.96982       	79.15316       	78.94533       	77.09543       	77.22898       	78.690575      	81.7994        	77.12775       	75.467415      	78.05181       	77.6714        	78.39579       	78.53956       	77.45166       	78.79318       	78.357544      	73.81991       	76.39759       	74.69067       	78.392845      	77.024536      	77.53006       	77.42433       	76.25817       	92.13182       	89.68048       	92.16231       	91.176414      	92.37327       	76.76216       	92.4893        	89.26479       	92.363655      	92.30148       	85.665215      	92.42063       	89.151924      	92.49749       	86.687225      	92.21442       	92.38419       	81.1838        	92.48563       	89.876854      	92.455124      	85.61042       	92.13285       	92.421036      	89.74039       	92.48777       	87.29781       	92.51865       	86.55052       	92.438515      	92.437836      	81.95277       	92.61712       	90.60438       	92.05309       	92.56427       	88.88257       	92.605606      	92.494156      	89.35144       	92.57361       	92.38503       	87.11442       	92.551476      	88.899155      	92.537224      	92.553055      	89.27631       	92.32788       	92.70931       	92.502         	85.18746       	92.89655       	92.69587       	89.716934      	92.95935       	92.84173       	92.63737       	78.7299        	92.914764      	92.71073       	86.71532       	92.87414       	92.69835       	84.94773       	92.642815      	92.66787       	89.81248       	92.51501       	92.6393        	
76.40026       	79.78485       	79.40285       	79.20197       	81.39273       	78.24969       	77.57228       	78.2884        	78.32425       	77.37455       	77.60237       	78.163315      	79.256996      	76.14932       	77.47564       	78.07993       	76.60093       	78.73792       	80.220345      	78.44728       	78.881714      	74.885086      	76.24615       	76.25781       	78.19895       	74.49465       	75.741936      	75.96768       	77.40821       	92.156944      	87.11796       	92.368         	86.04436       	92.37962       	92.310524      	77.96242       	92.54381       	88.96966       	92.4908        	92.37037       	86.011215      	92.41952       	79.79787       	92.50559       	86.89969       	92.42607       	92.44433       	79.69304       	92.36151       	89.06572       	92.473526      	91.491936      	91.268974      	92.47348       	76.20509       	92.552704      	86.18141       	92.376724      	86.72384       	92.178375      	92.46787       	86.086235      	92.641235      	87.26633       	92.42093       	92.55374       	86.977516      	92.64407       	92.45398       	78.42193       	92.59682       	92.377365      	89.10023       	92.53946       	87.817406      	92.61031       	92.56934       	86.514854      	92.48453       	92.66955       	92.45721       	91.685646      	92.844185      	92.64201       	86.79122       	92.952934      	92.75641       	88.69641       	92.58561       	92.87348       	92.64013       	90.08962       	92.83933       	92.63924       	87.18455       	92.82044       	92.622856      	87.714745      	92.72693       	92.57981       	
92.1264        	89.95159       	78.8241        	78.04068       	58.173435      	91.53311       	87.60995       	83.66066       	78.07624       	78.224434      	78.4           	75.33152       	79.78402       	79.994095      	75.875694      	76.533585      	77.17397       	77.907005      	79.64254       	79.60626       	77.83832       	75.20003       	74.99637       	76.82457       	78.173615      	77.55258       	78.11437       	75.67623       	79.946144      	85.578094      	90.74467       	81.33717       	91.25997       	86.58632       	91.34889       	91.9897        	87.217384      	91.879196      	89.2103        	91.49866       	91.709076      	86.397804      	92.06825       	88.48574       	92.18569       	92.05057       	87.14717       	91.804016      	89.14535       	91.903984      	88.27651       	92.17218       	90.40219       	90.987465      	92.19045       	86.81186       	92.194336      	86.1012        	92.5586        	89.3044        	92.56372       	92.470604      	85.9053        	92.54975       	89.62073       	92.46585       	92.35014       	78.30132       	92.47271       	92.280785      	90.58419       	92.36154       	85.85183       	92.10796       	85.30853       	92.14689       	92.14277       	88.41213       	92.641304      	92.435135      	82.45325       	92.86256       	92.64426       	86.03409       	92.911934      	92.778885      	92.53669       	90.91896       	92.89474       	92.69902       	90.203896      	92.875175      	92.685135      	90.29175       	92.80181       	92.63625       	85.669136      	92.41645       	92.37757       	86.94994       	
48.57324       	91.73251       	92.18175       	92.03651       	89.41169       	92.07979       	88.91286       	80.069824      	79.223915      	77.06139       	78.66973       	77.91054       	79.68281       	76.62814       	76.327866      	77.91485       	76.147705      	78.63915       	78.55076       	78.40804       	79.8564        	74.64672       	74.14867       	76.14751       	76.0783        	78.38887       	79.113174      	78.18357       	80.05216       	92.20406       	84.934555      	92.216774      	86.49392       	92.496         	92.34108       	90.50498       	92.44853       	86.79665       	92.5161        	92.346535      	90.421364      	92.427734      	87.55333       	92.444275      	81.9487        	92.327774      	89.31154       	92.45879       	89.412506      	92.54287       	89.22852       	91.81488       	92.29216       	76.2465        	79.69311       	74.39102       	92.46615       	89.04117       	92.5369        	90.78199       	91.63158       	92.58935       	89.15575       	92.62884       	92.51526       	82.93512       	92.643295      	92.43417       	89.04552       	92.60808       	87.1561        	92.2541        	92.53837       	77.55636       	78.12994       	92.34975       	92.424774      	88.97067       	92.68347       	86.241234      	91.71082       	92.77449       	92.56783       	91.604805      	92.78154       	92.55235       	90.19688       	92.8132        	92.58336       	86.31416       	92.85162       	92.6401        	89.00448       	92.777275      	92.57393       	49.36523       	92.65576       	91.51594       	90.64875       	90.47147       	
92.1691        	92.01124       	85.741196      	91.51467       	92.03842       	91.87543       	89.706696      	92.05094       	82.77173       	57.19033       	91.979744      	76.832         	90.67316       	87.32631       	78.154305      	76.84108       	79.10404       	77.09079       	78.76317       	74.54062       	79.56752       	74.80944       	76.60194       	77.78976       	74.49013       	78.43065       	74.24807       	76.91791       	75.84912       	78.00371       	75.1964        	92.39885       	89.612236      	92.47732       	92.406044      	85.866745      	92.49224       	86.81305       	92.38094       	92.41823       	87.299995      	92.49024       	76.768684      	92.44065       	85.369064      	92.56259       	89.83249       	92.48122       	88.48618       	85.61087       	92.459915      	86.59274       	92.26127       	81.85225       	76.233315      	79.471         	79.23448       	92.52979       	88.65155       	91.62014       	92.55938       	85.46383       	92.714516      	92.54372       	85.04416       	92.62002       	92.431206      	80.99341       	92.580986      	86.06751       	92.50185       	92.54262       	75.06063       	92.53704       	79.94144       	75.1182        	85.6825        	92.38467       	73.380135      	92.52918       	92.55195       	85.56616       	92.8246        	92.59399       	89.136856      	92.80622       	89.22724       	91.98001       	92.71326       	85.9735        	92.65424       	92.69714       	89.0788        	92.679375      	90.00709       	78.48944       	77.107704      	79.53358       	77.100494      	81.98401       	
92.20046       	92.0581        	88.23468       	92.15457       	92.19769       	92.0321        	85.434746      	92.16915       	89.64798       	90.49761       	92.06168       	76.11612       	75.92478       	79.38616       	78.86076       	77.518394      	76.4557        	77.97097       	78.87415       	77.71515       	76.75787       	77.77462       	77.61124       	75.52495       	75.20302       	75.02927       	76.47625       	75.8713        	76.804794      	73.1595        	77.39505       	74.85207       	74.847084      	74.88858       	77.31201       	75.12517       	92.517105      	88.14168       	92.500374      	86.906876      	92.48856       	90.02152       	92.49468       	80.45057       	66.76719       	92.53215       	89.96729       	92.49          	83.20368       	81.30436       	73.816154      	73.87049       	77.63905       	75.98478       	78.896385      	77.88708       	82.02049       	81.3945        	91.79419       	92.453995      	89.6812        	92.48374       	85.168465      	92.58996       	92.445724      	87.06214       	92.61926       	88.993484      	92.474754      	92.49722       	75.44875       	80.52429       	80.091064      	79.423775      	77.8814        	78.73334       	78.21821       	77.62313       	75.30673       	87.45731       	92.738846      	86.821106      	91.84514       	92.78696       	86.81024       	92.571724      	92.61749       	75.8577        	92.731575      	86.28814       	92.396904      	92.63155       	71.25075       	92.67145       	84.11842       	80.07264       	80.01247       	77.00919       	76.166664      	81.61712       	
85.12798       	91.27352       	92.30911       	92.20401       	92.04983       	82.6694        	92.19227       	92.03783       	88.93588       	92.22565       	92.01484       	86.52873       	92.08695       	85.752174      	91.98772       	82.78627       	78.06888       	76.73019       	77.73205       	77.51382       	76.071365      	78.90411       	76.14917       	75.45102       	79.54763       	74.18846       	73.93146       	76.58085       	75.802025      	77.84604       	76.157776      	87.94135       	92.39533       	74.644585      	92.32092       	85.997116      	76.67452       	75.222206      	78.89641       	91.819534      	91.04249       	75.09412       	78.58134       	74.77932       	92.47363       	87.43953       	92.50658       	85.66716       	92.423996      	85.95767       	92.32665       	92.31914       	90.62026       	86.10049       	75.15938       	78.288475      	77.19853       	79.21904       	92.20702       	89.71545       	73.43288       	92.44667       	85.770355      	91.57988       	92.40299       	85.1174        	92.5698        	92.42998       	89.81471       	92.46672       	84.29616       	91.83361       	79.091576      	78.77337       	77.28977       	77.58216       	80.04203       	77.89691       	75.90655       	76.0591        	76.88731       	92.74532       	92.69844       	86.31793       	92.81852       	89.10006       	92.35786       	92.67444       	85.56579       	92.75162       	92.56865       	89.23676       	92.68251       	89.61767       	92.42501       	87.5669        	79.013         	79.352844      	80.35364       	80.56919       	
92.28474       	89.53661       	40.02864       	92.38554       	92.3133        	92.11995       	82.849         	92.34519       	92.09479       	87.824905      	92.29141       	85.157394      	91.93056       	92.162125      	85.11357       	92.149         	86.78869       	91.86013       	82.4333        	78.70644       	79.33201       	77.40601       	75.22526       	78.51999       	74.745605      	74.45468       	75.29393       	71.381775      	79.39819       	74.9297        	76.60607       	73.926056      	85.924034      	92.41453       	80.89589       	92.46286       	83.993805      	92.464714      	52.655895      	92.54256       	87.5655        	92.52631       	87.033875      	92.44497       	79.94558       	76.81183       	92.509964      	86.63978       	91.35088       	92.35427       	91.310326      	92.38073       	75.22483       	75.88667       	79.90133       	78.819374      	80.473434      	80.63815       	77.415504      	92.50104       	92.32916       	91.23107       	92.5408        	86.356415      	92.60018       	86.8561        	92.43204       	91.60773       	91.93456       	92.525375      	89.814125      	91.53148       	79.003784      	75.43552       	75.4496        	76.823524      	75.90241       	77.10945       	75.74268       	86.17498       	92.69982       	85.555         	92.549995      	92.469635      	81.69226       	92.79999       	86.17732       	92.15944       	92.72015       	88.71872       	92.772095      	86.88326       	91.652054      	92.6457        	81.2881        	75.43583       	80.78086       	79.91175       	78.48215       	82.499115      	
77.35801       	92.41756       	92.3182        	92.16196       	89.6469        	92.4201        	92.31624       	88.33659       	91.88074       	92.28119       	86.05515       	92.22324       	92.029305      	87.89985       	92.3157        	89.341774      	91.78434       	92.13635       	75.067566      	78.717896      	75.55362       	79.064865      	74.31465       	74.74979       	76.282555      	90.20639       	92.21428       	71.86436       	76.25064       	92.372894      	89.29774       	73.38105       	74.72855       	92.20316       	86.59497       	75.991325      	91.68147       	89.198814      	92.46079       	86.84682       	92.422195      	87.81128       	92.240326      	91.09273       	91.715645      	92.4394        	89.320335      	92.475494      	81.48905       	91.80461       	87.50998       	92.16755       	92.39117       	78.3795        	77.24597       	91.463394      	92.46054       	87.29667       	92.506386      	87.370705      	92.63582       	92.50175       	86.25395       	92.651276      	86.40553       	92.49168       	92.54107       	87.7795        	92.5573        	83.662796      	92.47723       	81.910675      	77.15051       	77.196884      	76.429344      	74.80196       	88.63646       	92.55599       	87.88854       	92.64644       	89.02965       	92.75264       	88.29313       	92.52468       	92.75766       	85.13192       	92.79427       	92.67468       	85.64058       	92.74907       	92.557686      	90.27142       	92.629524      	86.814095      	92.649284      	84.99705       	77.494415      	79.65915       	80.671326      	80.02568       	
81.057205      	92.47148       	92.40252       	92.25683       	85.90164       	92.360634      	92.425125      	87.65452       	92.40677       	92.304306      	87.23819       	92.40725       	92.13517       	91.547745      	92.21183       	89.053604      	92.149185      	92.13965       	77.17318       	75.60058       	75.98751       	76.66675       	66.0058        	92.1418        	86.18992       	92.26852       	79.13062       	92.368965      	84.8079        	92.44783       	88.1308        	92.40146       	89.23611       	73.17358       	77.83913       	75.54266       	80.18791       	78.11076       	92.21772       	89.11097       	92.01258       	89.47828       	91.35864       	92.47605       	78.71596       	92.26251       	86.01558       	92.43321       	89.88605       	91.39385       	92.35394       	84.87144       	91.97447       	85.511116      	91.79306       	82.35777       	91.8093        	88.06561       	75.75112       	91.20113       	92.54881       	85.79943       	92.6323        	92.50351       	89.214355      	92.57282       	86.62283       	92.4716        	88.79508       	92.32111       	82.26284       	74.23142       	77.06978       	77.26029       	68.30602       	92.641426      	82.735825      	92.71715       	89.29044       	92.76552       	92.472084      	90.92991       	92.70459       	86.26291       	92.79106       	86.336914      	92.440125      	92.70999       	85.83226       	92.78067       	92.403824      	92.04544       	92.65995       	61.629425      	92.652466      	89.83931       	92.472404      	81.05266       	83.68225       	79.335976      	
92.53479       	92.43903       	92.32883       	84.78236       	91.649025      	92.47395       	91.88268       	90.77662       	92.470955      	88.25517       	92.375656      	92.3304        	81.17367       	92.446785      	92.24067       	81.04716       	92.39661       	88.0051        	77.85831       	76.86531       	77.47915       	78.64732       	77.09813       	91.18022       	84.958336      	91.92472       	91.11565       	91.58265       	92.33138       	73.79722       	78.691895      	78.751686      	90.360855      	92.44549       	72.807686      	73.49757       	79.010025      	92.170815      	80.522644      	75.41296       	92.49781       	87.71601       	92.41673       	86.76111       	92.015175      	86.68263       	92.28792       	92.40211       	71.041725      	92.36243       	85.48607       	92.43443       	88.42944       	77.00308       	77.35702       	89.999435      	92.45976       	89.4825        	92.544075      	89.1275        	92.08961       	92.5327        	89.09532       	92.68719       	92.41663       	91.61631       	92.45232       	75.2841        	79.6354        	77.0263        	77.43353       	77.95755       	77.09193       	79.035614      	75.80846       	78.20121       	78.02676       	92.68283       	86.63518       	92.340904      	92.42931       	90.91568       	92.69578       	89.84176       	92.8414        	90.863686      	91.27689       	92.7517        	90.637184      	92.81588       	92.66537       	85.004684      	92.71495       	89.09383       	92.28165       	92.507324      	66.02719       	92.51898       	81.51897       	79.19863       	
87.21          	92.009926      	92.507805      	92.40755       	92.251076      	90.40529       	92.56281       	92.093056      	90.536194      	92.474335      	91.74444       	88.89715       	92.47088       	92.26789       	90.90386       	92.44844       	92.08074       	91.7935        	92.285095      	78.302505      	87.69863       	91.13544       	90.24582       	92.228714      	81.227234      	92.29485       	86.432304      	92.435936      	87.924995      	92.37576       	92.36635       	88.77004       	92.43723       	89.96933       	92.501335      	87.07709       	92.39465       	76.01515       	92.36918       	89.52376       	92.399666      	89.501305      	92.410355      	86.7885        	92.16562       	86.532845      	92.37656       	86.11941       	76.35248       	92.37377       	86.31214       	92.324135      	86.21853       	92.40898       	87.97283       	92.44207       	87.43778       	92.56285       	92.42125       	87.90777       	92.66061       	88.58365       	92.44203       	92.562614      	86.712776      	92.65491       	86.32003       	92.519516      	89.77718       	92.54307       	77.7865        	79.96402       	88.61449       	88.351494      	75.99687       	76.28281       	78.92751       	80.05529       	92.57731       	92.662834      	81.178024      	92.74432       	85.691475      	92.79662       	92.72492       	74.58264       	92.83514       	92.448364      	91.75357       	92.73982       	86.32215       	92.63914       	92.69155       	90.33037       	92.75976       	92.58759       	80.74681       	92.602066      	86.82823       	92.28937       	
92.48416       	87.13789       	92.35898       	92.49912       	92.35272       	84.590096      	92.55403       	92.47949       	86.53129       	92.60032       	92.43896       	84.843124      	92.551575      	92.33198       	85.26048       	92.514084      	92.27048       	86.4621        	92.21362       	83.94114       	79.77751       	92.29294       	86.29653       	92.35297       	86.363655      	92.31286       	88.90504       	92.4296        	92.37686       	89.92773       	92.51983       	86.58835       	92.42144       	82.0592        	73.280304      	74.82127       	72.87973       	78.65415       	83.81901       	87.05251       	92.063065      	86.44989       	92.4163        	89.970276      	92.28206       	79.053116      	76.31271       	85.6192        	92.30351       	75.90193       	91.81671       	88.69549       	92.38998       	85.96869       	92.513374      	89.46649       	91.843025      	92.47528       	82.2225        	92.62616       	85.81779       	92.44332       	92.509224      	87.96583       	92.623795      	89.57236       	92.64133       	84.275         	76.3211        	74.92086       	77.71968       	77.238335      	92.54886       	81.22875       	78.08901       	79.58392       	78.142105      	77.37433       	87.56303       	92.709564      	88.52644       	92.79501       	90.620224      	92.32785       	92.810425      	87.93359       	92.83414       	92.79222       	88.737526      	92.8781        	92.69711       	90.22213       	92.8026        	86.14888       	91.98319       	92.69074       	86.653076      	92.27183       	92.41686       	81.464386      	
92.58704       	92.46064       	92.33693       	88.23682       	92.51248       	92.48477       	84.704506      	91.94729       	92.57781       	92.35169       	92.12599       	92.53725       	92.32265       	89.761536      	92.505905      	90.66423       	91.86151       	92.406784      	58.66009       	92.27792       	83.95291       	92.34363       	85.207275      	92.39851       	85.44031       	92.01879       	92.284744      	89.99312       	92.42478       	86.44773       	92.46039       	92.385826      	74.79121       	80.00324       	75.73669       	79.05093       	78.85697       	75.27577       	73.10191       	83.55696       	92.40585       	89.99578       	87.106224      	77.553085      	79.89834       	78.10452       	92.40737       	79.30322       	79.03569       	79.14404       	79.94627       	92.346245      	86.67586       	92.444756      	89.1574        	92.29745       	92.41475       	89.59745       	92.58558       	85.32027       	92.54399       	92.430336      	90.8899        	92.586365      	86.06072       	92.59332       	88.485344      	92.454285      	77.519554      	77.69212       	77.888756      	76.57808       	74.95706       	75.0081        	76.95884       	78.0006        	80.43088       	82.43619       	90.62525       	92.69317       	86.94044       	92.78567       	85.65376       	92.721886      	92.754814      	88.34266       	92.88541       	92.73287       	74.98825       	92.90298       	92.70018       	90.964806      	92.81279       	89.75124       	92.53482       	92.66208       	87.43218       	92.58157       	86.026245      	91.92897       	
92.3615        	91.02747       	92.57997       	92.48302       	92.29646       	89.0971        	92.597786      	92.413536      	89.70053       	92.64207       	92.49394       	85.279106      	92.58798       	92.439995      	66.50435       	92.38976       	81.61598       	79.925545      	79.50191       	78.891075      	78.12137       	92.33879       	85.55214       	92.0951        	92.26549       	85.167755      	92.37247       	86.117584      	92.37891       	87.1427        	92.34875       	92.3891        	83.363625      	92.42897       	75.7001        	75.94689       	77.7372        	79.88432       	76.86099       	73.24476       	92.33882       	79.5506        	76.75457       	78.55757       	88.657585      	92.37626       	77.974754      	92.0016        	89.819016      	65.46431       	92.36818       	88.11403       	92.4014        	81.532524      	92.534164      	86.15076       	92.58783       	92.32573       	91.83821       	92.52765       	71.068214      	92.26134       	86.17292       	92.48105       	88.027664      	91.74531       	89.27086       	77.91514       	75.76032       	78.279465      	75.16483       	78.52804       	77.58623       	77.15211       	75.44154       	75.31196       	80.51455       	86.72556       	92.333275      	89.36472       	92.86029       	92.663086      	88.41556       	92.748         	89.588356      	92.65581       	92.6317        	88.90489       	92.70063       	89.19045       	92.86802       	92.737206      	86.00357       	92.77622       	92.58833       	90.06588       	92.637566      	86.03849       	92.08134       	92.0117        	
92.45734       	87.45523       	91.944595      	92.55916       	92.45798       	90.14774       	92.590195      	92.52284       	91.90578       	91.742676      	92.57439       	92.34787       	91.32048       	92.098495      	86.52117       	92.38691       	76.14609       	80.53225       	80.0626        	78.98303       	92.15267       	89.14801       	92.337265      	89.254166      	92.3324        	89.189         	92.32615       	87.352585      	92.299194      	92.35455       	82.18733       	92.417175      	86.86637       	92.3743        	85.5917        	78.55003       	79.13176       	78.77678       	92.1137        	78.041664      	76.37919       	78.89955       	92.39421       	80.93829       	92.30883       	87.29528       	87.74111       	91.6553        	89.82562       	91.6946        	92.341705      	90.114845      	92.413185      	85.93719       	92.46006       	86.20484       	92.65432       	92.483444      	89.493546      	92.67154       	88.4428        	92.58025       	92.599266      	68.07538       	92.669395      	81.3832        	80.84613       	90.1572        	76.23775       	77.59742       	77.22409       	77.77222       	81.70061       	75.060875      	78.296364      	76.4684        	76.13145       	82.14201       	77.96729       	92.77284       	85.82533       	92.560165      	92.64426       	85.92866       	92.68258       	88.46776       	92.82828       	85.47277       	92.3594        	92.72645       	67.252144      	92.80275       	88.6649        	83.65681       	81.01898       	80.76418       	79.91737       	79.67155       	81.007         	83.45067       	
92.29002       	90.201294      	92.58612       	92.49795       	92.35943       	86.922874      	92.612         	92.44298       	85.90313       	92.56367       	92.41177       	87.09296       	92.52181       	89.64826       	92.40156       	87.5066        	92.35338       	87.766235      	92.334366      	77.77134       	76.81701       	90.20787       	92.31633       	84.11877       	92.34047       	80.49416       	92.3629        	86.776375      	92.465805      	89.33523       	91.96639       	92.33896       	86.92606       	92.36255       	73.60348       	78.55224       	76.80801       	75.45747       	77.112015      	76.52849       	76.27967       	81.10583       	76.32711       	79.18335       	78.37218       	79.036026      	76.80343       	77.48227       	80.506096      	92.25584       	87.57589       	92.18013       	89.90778       	92.31296       	89.97358       	92.19625       	92.497475      	87.79296       	92.70028       	87.85123       	92.45164       	92.49578       	80.91555       	92.6555        	87.740685      	92.647545      	83.26105       	77.48864       	75.61386       	77.484436      	76.82846       	81.34373       	77.54417       	79.057816      	76.147575      	79.62258       	79.18233       	78.07898       	72.84004       	92.57916       	88.86281       	92.773315      	86.75508       	92.5346        	89.16603       	92.453285      	92.7334        	88.089676      	92.82569       	86.48799       	92.83134       	88.35694       	91.671906      	92.73218       	77.92066       	75.897865      	79.69169       	79.78733       	82.89586       	89.68764       	
92.457085      	92.317         	85.18961       	92.45132       	92.54595       	92.362915      	89.35353       	92.60046       	92.42967       	87.78777       	92.53225       	92.37979       	88.721756      	92.45806       	89.23229       	92.2801        	86.65687       	78.219444      	78.738884      	79.43342       	77.588264      	82.52836       	90.27343       	92.33921       	81.10872       	92.37148       	89.35943       	92.48769       	87.02387       	91.53998       	92.44244       	87.67941       	92.44606       	88.11872       	92.207886      	80.41929       	77.219444      	77.45438       	75.93173       	77.95254       	76.38588       	76.37391       	74.94788       	75.500404      	78.73125       	78.106895      	74.84647       	80.5741        	92.19371       	90.31123       	92.42095       	78.63914       	92.49525       	87.46768       	92.57442       	85.4602        	92.71946       	92.537025      	91.50942       	92.673325      	89.71459       	92.71122       	87.36519       	92.556755      	87.202034      	76.93832       	78.58152       	76.38636       	77.29605       	78.36529       	78.22518       	80.17307       	77.738266      	78.785446      	77.79859       	77.05416       	76.91122       	76.38673       	76.453354      	92.26227       	86.2599        	92.55461       	86.08017       	91.76335       	91.799225      	91.37086       	92.72649       	90.36974       	92.800804      	90.37104       	92.84008       	87.04053       	92.62443       	84.92121       	80.26001       	80.70859       	82.967445      	79.83765       	82.02544       	81.442955      	
91.51812       	92.53765       	92.43329       	85.925385      	91.09829       	92.563         	92.42932       	88.30979       	92.60293       	92.44386       	88.394295      	92.57645       	92.41774       	83.808655      	92.475876      	87.69543       	92.319565      	76.40795       	76.41259       	80.03924       	81.09765       	76.28565       	92.304565      	87.21553       	91.8888        	92.29143       	91.11072       	92.45101       	86.726425      	92.473656      	92.44068       	76.79192       	92.45885       	89.76765       	92.39652       	81.76926       	87.15583       	92.35246       	75.8298        	77.09655       	75.00311       	81.71277       	77.10117       	77.96391       	78.00813       	80.19775       	74.60242       	77.7746        	91.175995      	92.41217       	88.1022        	92.52595       	85.56633       	92.51677       	86.06652       	92.409325      	92.63971       	87.20903       	92.74413       	89.278114      	92.41445       	92.5375        	91.1197        	92.65401       	78.8831        	92.6103        	89.8035        	87.05354       	81.72829       	79.105736      	79.45743       	80.86989       	79.47251       	77.79017       	76.257225      	77.34957       	78.64013       	76.45529       	67.2274        	92.73076       	89.42915       	92.73187       	90.12538       	92.724         	85.62255       	92.80755       	86.85539       	92.68356       	92.70742       	89.44213       	92.8734        	84.72909       	75.59156       	79.017296      	79.57958       	80.38889       	78.90406       	92.030914      	91.05828       	78.557526      	
92.36216       	86.406456      	92.43155       	92.5459        	92.40995       	86.2381        	92.51364       	92.467186      	85.53702       	92.080215      	92.49658       	88.24847       	92.32273       	92.30739       	88.629074      	92.39224       	75.57309       	75.703156      	77.13332       	73.82717       	81.29246       	91.75721       	92.320496      	90.50112       	92.42639       	89.32637       	92.53          	92.37596       	90.75757       	92.56211       	90.56547       	91.88234       	92.44171       	76.02099       	92.470856      	74.9425        	92.46841       	86.584         	92.45157       	78.52432       	75.18426       	81.840385      	78.758835      	74.30329       	77.733         	80.918106      	77.498566      	92.204704      	87.58262       	92.41263       	92.461586      	91.23144       	92.535614      	88.75429       	92.66617       	86.50794       	92.7917        	91.50422       	79.957855      	83.5204        	90.0493        	91.82759       	87.53754       	92.62027       	78.70408       	78.18047       	77.35789       	75.41067       	79.35806       	79.84348       	78.692535      	77.73711       	78.5552        	79.19111       	79.41834       	76.784325      	78.56665       	75.862625      	77.177795      	87.91745       	92.715004      	74.0881        	92.65676       	86.95191       	92.57464       	90.16406       	92.74761       	84.26933       	92.76864       	77.413216      	77.713554      	92.82347       	79.924934      	80.49033       	79.32435       	92.73961       	89.3475        	92.60931       	92.38922       	79.10155       	
86.12026       	91.71509       	92.58294       	92.49672       	91.583374      	89.39979       	92.591484      	92.424324      	86.3455        	92.5816        	92.41015       	87.45306       	92.483055      	86.785255      	92.41386       	81.74279       	77.24788       	76.11876       	77.914024      	77.393814      	79.600365      	92.33579       	72.7766        	76.544624      	92.41684       	87.86034       	92.53908       	92.430855      	89.239586      	92.57605       	92.437485      	86.27218       	92.4949        	89.170204      	91.60634       	92.068         	71.28187       	92.23066       	87.90149       	92.39312       	78.39038       	71.25834       	92.3925        	80.55067       	92.361755      	73.35992       	78.73513       	91.13252       	74.51676       	92.56572       	89.66975       	92.61898       	86.89629       	92.697296      	86.10328       	92.68496       	92.41214       	90.5968        	92.6655        	77.19349       	87.83861       	79.54577       	80.13796       	91.88981       	86.97175       	92.141106      	83.0452        	80.741325      	78.30286       	80.1658        	77.70492       	78.58521       	76.865         	78.13938       	79.42296       	78.9431        	76.507195      	77.623985      	78.44634       	78.73148       	92.23202       	92.66361       	86.809105      	92.66841       	87.45609       	87.71614       	76.772675      	74.55877       	79.0083        	77.58171       	76.98577       	80.1587        	78.88292       	79.73661       	92.71101       	89.69572       	92.60063       	87.074936      	92.07095       	88.99298       	
92.28708       	92.20692       	85.75613       	92.58259       	92.62286       	92.49998       	90.31578       	92.45135       	92.51727       	88.80474       	92.21174       	92.40679       	88.006         	92.198944      	86.45652       	92.32986       	83.91069       	77.03057       	78.14001       	78.4249        	77.22283       	77.83033       	76.49766       	73.77415       	92.51146       	92.41123       	84.26252       	92.60517       	92.419395      	74.87869       	92.62281       	92.43711       	87.79147       	92.54654       	88.563774      	91.45857       	92.38989       	87.47625       	92.42437       	87.75265       	92.39781       	78.00012       	91.99852       	89.79344       	92.42019       	88.31554       	88.47375       	79.02789       	90.65617       	90.15918       	92.21309       	88.72189       	92.33049       	89.85496       	92.26991       	92.54051       	91.932884      	91.735466      	88.725555      	92.649475      	75.17949       	79.82732       	90.561005      	87.98698       	92.50938       	80.17623       	78.39387       	76.52185       	78.01168       	79.295006      	79.30865       	80.99329       	75.89278       	79.988594      	78.85127       	77.421814      	77.93526       	76.47049       	77.07816       	76.92407       	78.69768       	76.72315       	92.55459       	90.17486       	78.46524       	78.71862       	78.72876       	77.80895       	79.7289        	79.90575       	78.239265      	77.66348       	79.83762       	75.46858       	92.75157       	86.51115       	92.45846       	89.81366       	92.17266       	87.72357       	
92.56124       	92.57172       	92.5068        	92.3812        	84.91081       	92.591255      	92.54034       	92.35755       	86.94685       	92.52849       	92.37161       	81.127106      	92.50213       	91.306946      	91.69883       	91.39633       	80.020454      	75.31769       	77.95617       	79.97624       	76.85375       	73.93839       	74.67492       	75.384186      	92.449234      	92.46247       	85.5069        	92.44265       	92.479904      	88.654366      	92.56354       	92.5229        	85.37325       	92.5606        	92.521515      	88.79264       	92.52949       	86.708916      	91.77751       	92.44326       	90.54984       	92.439674      	82.60791       	92.41319       	87.29948       	89.84873       	75.90765       	74.7669        	74.04428       	92.46311       	87.35297       	92.57869       	80.47785       	92.35571       	54.60682       	92.644775      	80.426765      	92.052025      	79.03366       	78.28806       	78.563156      	76.93551       	77.88453       	76.18988       	77.29316       	79.39539       	76.09513       	62.63632       	88.41748       	77.84555       	79.0037        	77.553955      	76.91424       	79.28973       	76.86091       	78.150246      	78.35299       	75.09709       	78.25437       	79.2336        	77.5123        	78.08072       	76.77277       	79.18795       	76.89184       	76.89097       	75.838715      	78.5674        	76.322075      	78.47856       	78.90926       	79.060524      	80.402916      	81.81982       	79.25637       	78.47516       	85.15857       	88.69117       	80.083115      	92.30662       	
92.43635       	89.64753       	91.33694       	92.69066       	92.63372       	92.52108       	92.3494        	91.933304      	92.557724      	92.41835       	85.234085      	92.56949       	92.42987       	88.60019       	92.41214       	87.96995       	79.74857       	80.4166        	78.634674      	77.305954      	77.81764       	78.555786      	83.46219       	92.5113        	87.4481        	92.07772       	92.53509       	86.99515       	92.59345       	92.53268       	85.46725       	92.714264      	92.60849       	88.29954       	92.408554      	92.475716      	89.51347       	92.58568       	92.43199       	91.02057       	92.35293       	87.13709       	92.461945      	87.020996      	92.47057       	83.49509       	92.24203       	91.09155       	80.53342       	76.51065       	79.752655      	76.65817       	92.57781       	75.87147       	74.041306      	83.86019       	92.46136       	78.473625      	76.82322       	78.26505       	79.60375       	76.68399       	79.46394       	88.434166      	76.92756       	78.14969       	78.73752       	78.39455       	91.51039       	73.94678       	79.194016      	79.48521       	76.55578       	80.32907       	78.84166       	78.30024       	76.802124      	76.794815      	78.99335       	79.8986        	79.71923       	79.17259       	75.05723       	77.3511        	77.49876       	75.33041       	77.15187       	77.90124       	77.13005       	78.280624      	79.38042       	81.1613        	80.81694       	82.66282       	77.4068        	81.141685      	81.872086      	77.53384       	82.05915       	79.55826       	
92.49344       	92.3697        	90.17579       	92.5489        	92.69714       	92.60365       	92.43919       	85.57741       	92.64871       	92.52086       	92.35285       	89.04044       	92.54255       	92.35448       	81.13019       	92.43826       	85.29444       	92.26213       	82.634026      	79.4634        	75.555405      	78.34775       	77.465454      	92.528336      	90.325195      	92.244         	92.50317       	90.50456       	92.62171       	92.45645       	77.56668       	92.79571       	92.59575       	88.5651        	92.77814       	92.55504       	82.42014       	92.671776      	89.634315      	92.6637        	92.501915      	84.87448       	92.46759       	89.2467        	92.664505      	87.33773       	92.62237       	86.42631       	92.17092       	76.48417       	76.29488       	76.076744      	77.2529        	76.23373       	83.09327       	90.98006       	91.231285      	92.058174      	76.17803       	77.44836       	75.12059       	79.06701       	80.5665        	79.67209       	77.72945       	76.757744      	77.29768       	78.0158        	78.10842       	77.603264      	80.32339       	74.95106       	79.0935        	77.63716       	76.51459       	77.95639       	78.57487       	76.60892       	78.58074       	79.34484       	76.638145      	79.8579        	77.45211       	76.14635       	76.87515       	76.16363       	78.653595      	77.07604       	77.781586      	79.3179        	78.6906        	79.44501       	79.77138       	81.93243       	78.86803       	79.88588       	81.63426       	83.237686      	79.71223       	78.7476        	
92.464905      	89.42621       	92.41283       	92.77597       	92.68137       	92.566765      	92.41366       	77.121346      	92.74453       	92.63575       	92.45607       	87.427284      	92.643394      	92.50879       	86.25092       	92.4908        	92.47878       	86.2726        	92.46438       	92.43159       	85.35451       	92.468704      	92.401695      	83.46446       	92.61218       	92.42058       	88.86523       	92.649124      	92.40326       	90.025734      	92.74046       	92.518814      	89.33919       	92.8009        	92.58174       	76.99216       	92.66744       	90.064514      	92.71608       	92.54759       	91.450676      	92.64154       	87.28134       	92.721634      	89.932945      	92.62026       	87.29705       	92.32488       	78.49353       	76.05552       	79.36837       	81.218155      	78.14283       	77.68984       	76.32228       	74.883804      	76.65283       	85.50862       	90.32102       	83.312836      	79.4991        	76.2642        	76.91754       	78.7982        	78.49917       	79.88779       	78.079155      	78.29346       	78.2163        	76.60321       	77.26426       	79.2761        	76.38765       	78.93178       	78.998924      	79.84076       	76.78428       	78.8571        	78.385826      	79.003296      	78.23881       	77.82899       	78.578995      	79.098755      	78.47738       	78.92586       	76.60155       	78.3339        	78.32401       	78.90454       	79.96406       	79.047935      	80.64185       	80.798836      	80.44806       	79.23299       	81.24395       	83.71803       	79.07701       	81.05994       	
92.42319       	85.416176      	92.10073       	92.7983        	92.71639       	92.62595       	92.43911       	87.696785      	92.755646      	92.65157       	92.487045      	87.740654      	92.67397       	92.63883       	92.47822       	87.555786      	92.68146       	92.53021       	88.682014      	92.407036      	92.55686       	88.636505      	92.62115       	92.5456        	90.26429       	92.66798       	92.549416      	89.75296       	92.7951        	92.65707       	88.93165       	92.92194       	92.73762       	86.50505       	92.81467       	92.722694      	85.28441       	92.67506       	92.64658       	84.21958       	92.78333       	89.81885       	92.65995       	92.604126      	90.335014      	92.66769       	78.358055      	92.65197       	72.50888       	92.07388       	75.40478       	75.88996       	78.984695      	78.99132       	75.09391       	83.199776      	87.15329       	81.782104      	81.61364       	78.50944       	76.1749        	77.00238       	80.105736      	78.75812       	78.84438       	78.23525       	75.172455      	78.50992       	79.97697       	78.75549       	76.97224       	78.92054       	78.3412        	76.6877        	77.905945      	79.69995       	77.59316       	79.53612       	77.662994      	80.02068       	79.924675      	76.75597       	77.7259        	78.05239       	78.608894      	77.841034      	76.841576      	79.5043        	80.09307       	77.75979       	79.75303       	79.28369       	80.283         	79.29315       	78.11537       	78.41701       	81.43155       	80.15536       	83.84935       	87.02624       	
92.82422       	92.73523       	92.65781       	92.55811       	92.4069        	89.68176       	92.76095       	92.67127       	92.5068        	92.32277       	92.34059       	92.71884       	92.55506       	91.90826       	92.03055       	92.69526       	92.521164      	87.404976      	92.69303       	92.68202       	92.4632        	89.9442        	92.73205       	92.536446      	90.22593       	92.7478        	92.57395       	88.66734       	92.8331        	92.652145      	83.97451       	92.86287       	92.65695       	82.48707       	92.9449        	92.752686      	88.39234       	92.804054      	92.62979       	88.04002       	92.74231       	87.58909       	92.81114       	89.86862       	92.632454      	85.72886       	92.58405       	90.12043       	92.633316      	83.64823       	77.38884       	79.75548       	77.19092       	76.208374      	85.26023       	89.77877       	80.12786       	79.53435       	76.89185       	76.32616       	79.94092       	75.15339       	77.863815      	78.27267       	78.19329       	77.25182       	77.36514       	80.47296       	77.83288       	76.31916       	80.6353        	78.60516       	78.47609       	78.17852       	76.2215        	79.57507       	77.50692       	79.816376      	78.71881       	78.13829       	79.20265       	78.17194       	76.857666      	79.75953       	77.26276       	73.50231       	78.24093       	79.47424       	79.45706       	78.086945      	80.11247       	78.681244      	79.673805      	75.59838       	80.94483       	83.02504       	82.528984      	89.34628       	86.01492       	80.09459       	
92.83547       	92.716446      	92.617805      	92.523766      	92.38772       	81.3075        	92.78699       	92.64659       	92.48137       	91.950195      	92.46144       	92.73296       	92.55594       	92.34228       	92.181046      	92.72573       	92.533         	91.418945      	92.336395      	92.74568       	92.55403       	87.754776      	92.73101       	92.67729       	92.43663       	92.12166       	92.68078       	90.15961       	92.74831       	92.694664      	86.1147        	92.93948       	92.7392        	87.804665      	92.98781       	92.87941       	91.647194      	92.49869       	92.75273       	89.30242       	92.7944        	92.6212        	90.94099       	92.71406       	53.01548       	92.73581       	87.688866      	92.67932       	80.05582       	76.98341       	76.55715       	77.31219       	77.52551       	76.81556       	73.891396      	75.59405       	77.50104       	77.69587       	76.521904      	77.94718       	76.89151       	79.74297       	77.09459       	78.78976       	78.580605      	78.4928        	78.31903       	79.130775      	78.80993       	78.56595       	78.25779       	79.22466       	77.75497       	77.93526       	79.632904      	79.455536      	80.654594      	79.120125      	78.122665      	78.7287        	79.24954       	78.43319       	78.25299       	77.793526      	79.86084       	78.0178        	79.13226       	78.09308       	77.57975       	77.81062       	77.36858       	63.08285       	92.4185        	77.59607       	79.57051       	79.418785      	78.94559       	80.691086      	80.70029       	79.176094      	
92.54451       	92.43717       	92.349304      	89.085526      	92.772224      	92.81557       	92.669716      	92.48046       	92.30103       	92.239685      	92.74808       	92.579315      	92.364105      	85.565094      	92.81926       	92.62998       	92.40986       	76.56067       	92.8747        	92.68579       	92.43665       	84.88404       	92.85903       	92.66269       	92.18564       	92.12803       	92.75947       	92.52551       	91.122734      	92.82194       	92.59032       	90.87024       	92.9623        	92.743         	77.1766        	92.97325       	92.787476      	88.8555        	92.83138       	92.69335       	87.56566       	92.826294      	88.84034       	92.8254        	88.45333       	92.736115      	90.38685       	92.66719       	80.25852       	78.208145      	79.287796      	80.76964       	77.0943        	76.29023       	76.589905      	77.788216      	77.50471       	76.0226        	79.84552       	80.954735      	78.46561       	78.63696       	78.56728       	78.20884       	78.56509       	78.736496      	78.50874       	78.3936        	78.5956        	78.42628       	78.67938       	78.10432       	77.45476       	78.830345      	78.19252       	79.068214      	80.15191       	78.44484       	80.340965      	78.80239       	80.51618       	76.4143        	78.700035      	77.72966       	78.302505      	78.92577       	78.29327       	79.21286       	78.0157        	77.97784       	80.56235       	80.28869       	78.536705      	78.16465       	79.255356      	79.81027       	79.941986      	81.59769       	79.345375      	79.108765      	
92.60111       	92.43138       	86.54914       	91.5773        	92.8793        	92.760025      	92.60419       	92.43356       	89.70889       	92.79888       	92.71895       	92.520454      	92.30271       	92.67335       	92.844826      	92.63714       	92.39896       	90.696365      	92.925476      	92.73558       	92.48742       	34.590027      	92.9158        	92.72193       	92.46688       	91.39125       	92.75929       	92.5446        	90.07717       	92.93224       	92.770836      	87.70824       	92.88446       	92.90332       	92.68884       	90.28117       	92.88378       	91.31378       	91.99094       	92.77997       	85.50603       	92.79615       	86.62526       	92.22009       	92.684105      	90.80409       	92.66983       	73.359505      	79.93039       	79.78603       	79.33731       	76.63911       	79.15602       	78.23101       	77.599724      	92.544716      	76.70294       	91.72726       	82.200836      	79.01179       	75.77986       	79.30614       	78.355865      	79.018524      	77.13372       	78.27592       	79.685974      	78.80604       	77.81491       	78.39523       	79.06883       	78.637054      	78.79995       	77.628555      	79.48949       	78.50761       	77.432205      	79.396866      	78.52359       	77.27218       	79.32286       	77.06525       	78.14616       	78.40898       	79.85068       	75.83535       	80.070854      	77.805725      	79.213165      	79.20777       	77.39267       	76.15919       	79.818054      	79.11121       	80.18511       	79.83397       	80.12693       	80.28513       	81.312454      	79.9854        	
92.639084      	92.45591       	86.933624      	91.6444        	92.961624      	92.80121       	92.62859       	92.45899       	86.16622       	92.873764      	92.72237       	92.50966       	92.28148       	92.509094      	92.90898       	92.72055       	92.49886       	38.119556      	92.97903       	92.81712       	92.60121       	90.2414        	92.93289       	92.78738       	92.54929       	79.09776       	92.877914      	92.674225      	86.57418       	92.93576       	92.74851       	88.377335      	92.988014      	92.86986       	90.810295      	92.173386      	92.86023       	92.64367       	88.99979       	92.77435       	86.00899       	92.81044       	92.67556       	89.14935       	92.67962       	76.68001       	92.08658       	78.62639       	58.715088      	92.63614       	79.03867       	79.90942       	79.02429       	79.12206       	77.58899       	79.182304      	80.100914      	78.37307       	76.494804      	77.6957        	77.50278       	77.54303       	77.48343       	78.07914       	79.00419       	78.06714       	79.24713       	78.23732       	78.80181       	77.06155       	78.92281       	77.0857        	76.51502       	79.04504       	78.12085       	78.56425       	77.895454      	79.35794       	79.66366       	78.75408       	78.13579       	78.02755       	78.34119       	77.50311       	78.91187       	77.16632       	79.37979       	79.73847       	79.88746       	82.03282       	80.17947       	79.383446      	79.25416       	79.14304       	78.70608       	77.13701       	77.25301       	81.13128       	79.4291        	78.42938       	
92.78884       	92.63669       	92.54625       	92.3973        	86.48856       	92.946236      	92.80365       	92.62978       	92.40207       	86.31928       	92.88914       	92.72313       	92.529816      	88.974686      	92.82452       	92.884         	92.70714       	92.45239       	82.286934      	92.996254      	92.83833       	92.60805       	89.790344      	92.93312       	92.79153       	92.538536      	92.0352        	92.88855       	92.69242       	90.32839       	93.0107        	92.901024      	92.66546       	92.21415       	92.981514      	92.82233       	87.674065      	92.751434      	92.892456      	92.711975      	91.331924      	92.79935       	90.16485       	92.68885       	88.689644      	92.317566      	89.919495      	92.49604       	90.008354      	78.21822       	78.23222       	76.771935      	76.11493       	77.279366      	76.917656      	77.36961       	79.65675       	77.777794      	77.867775      	78.722336      	79.31822       	78.586296      	78.65122       	78.21715       	79.566124      	77.220276      	78.66024       	80.45167       	77.48274       	78.67519       	78.21865       	78.77436       	79.993164      	78.58053       	78.81627       	77.21753       	79.39762       	79.768364      	81.2886        	76.88735       	77.82833       	77.934715      	79.383224      	79.66451       	77.03123       	80.68676       	76.63729       	76.68991       	79.99799       	77.97885       	78.68244       	80.48283       	79.43457       	81.032455      	80.74702       	77.06364       	80.07765       	78.67717       	79.63328       	81.11891       	
93.06526       	92.90364       	92.80583       	92.665436      	92.514725      	89.64278       	92.88813       	92.84376       	92.65525       	92.443275      	86.48068       	92.92979       	92.824036      	92.60829       	92.38067       	92.18267       	92.96607       	92.78259       	92.58367       	89.99286       	93.06515       	92.929405      	92.742584      	88.47251       	92.87777       	92.850525      	92.6166        	90.18231       	92.9083        	92.72918       	76.7304        	92.94761       	92.79741       	92.6024        	92.66409       	92.941284      	92.75044       	89.85426       	92.95015       	92.83506       	90.93127       	92.10044       	92.802         	87.31514       	92.450714      	92.641914      	83.739044      	88.732956      	78.5749        	92.55288       	80.729935      	76.65345       	77.80518       	77.02485       	80.8855        	80.23209       	78.11313       	79.61115       	92.53641       	78.3285        	78.571526      	76.1542        	79.65069       	77.83689       	77.26428       	77.48309       	79.01659       	78.200005      	78.15216       	79.33948       	79.66151       	78.37837       	78.20999       	80.03996       	80.360794      	77.01592       	78.92525       	80.1216        	79.66538       	76.26769       	78.7602        	78.18999       	77.38811       	77.25815       	79.740814      	77.73474       	78.15012       	77.41891       	78.786514      	79.96545       	78.46473       	80.22587       	79.48046       	79.83901       	79.380226      	78.82899       	78.33839       	60.015343      	92.39222       	83.1451        	
85.51913       	92.69454       	93.06875       	92.9639        	92.81783       	92.67162       	92.437454      	77.95955       	92.94243       	92.78819       	92.59015       	92.349884      	92.56241       	92.92961       	92.7438        	92.52048       	78.75651       	93.03003       	92.88485       	92.70544       	89.77331       	92.787895      	93.04894       	92.91704       	92.69051       	88.254326      	93.030464      	92.897446      	92.70052       	90.952705      	92.97324       	92.79601       	88.42753       	92.94898       	92.89521       	92.69156       	85.75039       	92.939476      	92.79546       	88.510376      	92.49692       	92.89827       	92.72534       	42.993114      	92.812645      	92.6845        	89.92016       	92.67062       	76.00616       	92.64189       	77.01014       	77.53376       	76.56694       	78.72898       	80.6355        	76.79592       	80.00172       	92.23135       	80.32244       	75.84051       	77.26881       	75.965935      	78.66543       	78.88744       	78.35366       	78.16617       	78.954666      	78.13947       	79.49731       	79.83241       	79.773994      	77.12526       	78.60753       	80.3735        	79.23847       	77.56463       	78.489655      	79.9629        	77.58498       	79.63543       	77.6368        	79.038         	79.191574      	80.11479       	78.817795      	78.74235       	80.01939       	77.734535      	78.99619       	80.373146      	79.72862       	79.27885       	79.174545      	79.98942       	78.10799       	76.55779       	85.052895      	91.20427       	81.43954       	80.80726       	
64.81051       	92.765015      	93.105804      	93.0027        	92.83647       	92.66815       	92.43899       	90.73878       	92.94911       	92.785545      	92.5917        	89.365776      	92.8972        	92.92968       	92.737595      	92.49873       	86.06079       	93.050446      	92.922585      	92.73878       	90.35622       	92.84706       	92.89415       	92.78637       	92.59249       	92.28767       	93.01717       	92.86783       	85.54659       	92.78905       	92.90235       	92.74763       	90.27992       	92.92453       	92.81138       	92.62309       	92.35891       	92.91169       	92.76233       	89.41463       	92.97999       	92.87926       	92.69358       	85.43992       	92.75356       	86.742294      	92.49995       	89.43226       	92.59666       	63.516254      	92.557335      	77.28871       	80.0514        	92.62237       	89.343376      	92.51243       	89.85529       	92.45178       	88.40831       	92.59604       	87.24381       	92.52761       	86.36401       	91.60972       	78.20099       	78.00576       	77.27894       	78.50722       	79.36601       	79.6894        	79.32176       	78.20563       	78.482254      	80.24896       	76.953674      	79.53345       	76.06458       	79.08487       	79.80437       	78.24784       	77.39996       	78.132904      	79.84211       	80.59046       	78.01416       	78.87824       	77.84375       	79.23482       	78.71745       	79.100464      	80.738365      	79.89242       	78.16201       	78.462585      	76.7891        	92.38111       	79.51963       	78.348595      	79.77749       	81.5144        	
92.99777       	92.8449        	92.73692       	90.04746       	92.17259       	93.00034       	92.8379        	92.65929       	92.402885      	89.19539       	92.95855       	92.80884       	92.58436       	88.89401       	92.92007       	92.939354      	92.7988        	92.58798       	85.393074      	93.06798       	92.92249       	92.73907       	88.940254      	92.879425      	92.99881       	92.85162       	92.65719       	91.06582       	92.96162       	92.82181       	92.653915      	92.35612       	92.87408       	92.70445       	89.77329       	92.92048       	92.810455      	92.61836       	92.23481       	92.890396      	92.76492       	90.649574      	92.86156       	92.72533       	88.886185      	92.715004      	89.80341       	92.47205       	87.07288       	91.63711       	87.36539       	92.25325       	88.03021       	76.58068       	92.15342       	89.67368       	92.37482       	83.02568       	92.261086      	92.45278       	91.506645      	92.48463       	74.29904       	78.57781       	78.51774       	78.25855       	77.41171       	77.58774       	79.45206       	81.07646       	79.06722       	77.477005      	79.14695       	78.574875      	78.648186      	77.69328       	79.91886       	78.69212       	78.72307       	77.52796       	76.30576       	79.825645      	78.87596       	79.25037       	79.174126      	79.4467        	78.7372        	79.829185      	78.98285       	79.79981       	79.23857       	78.845245      	78.98844       	77.5116        	77.85822       	89.47385       	90.7605        	76.61273       	78.5586        	78.64908       	
93.08681       	92.934044      	92.835526      	92.68261       	92.496994      	92.20167       	92.99942       	92.84524       	92.61951       	92.36153       	92.56008       	92.94982       	92.81633       	92.589294      	87.31435       	93.03801       	92.97619       	92.80768       	92.60022       	88.11377       	93.063065      	92.926765      	92.76243       	87.59946       	92.680855      	92.76654       	92.747284      	92.67461       	91.57038       	92.943634      	92.77943       	87.29278       	92.66543       	92.86933       	92.681175      	74.77307       	92.93076       	92.785034      	92.611694      	92.5026        	92.93318       	92.771904      	90.53886       	92.705025      	92.701744      	85.98145       	92.54048       	89.24427       	82.77151       	79.460884      	79.5897        	92.38652       	82.18293       	78.48235       	92.57714       	73.36897       	92.56532       	91.148315      	92.51589       	89.00704       	92.53935       	77.69802       	92.431885      	77.68875       	77.62451       	78.88994       	80.88839       	79.16944       	78.84363       	80.01368       	79.05275       	78.09544       	76.30574       	79.306854      	75.965225      	78.459724      	78.284035      	80.35358       	79.13597       	78.64871       	77.68558       	78.81849       	79.46967       	78.81382       	80.06321       	78.92434       	79.39006       	79.683014      	80.1826        	78.68221       	79.35169       	79.34349       	78.29375       	78.24256       	77.64617       	92.31787       	88.51283       	92.44561       	87.555885      	92.37928       	
85.7031        	91.01635       	93.079544      	93.01837       	92.89304       	92.7277        	92.505775      	82.9167        	93.0166        	92.87819       	92.68076       	92.42746       	91.05463       	92.99033       	92.848656      	92.65693       	87.46794       	93.0111        	92.96928       	92.80727       	92.602745      	90.37083       	93.03499       	92.90386       	92.747604      	89.523026      	93.04236       	92.94376       	92.787094      	89.28654       	92.62751       	92.88314       	92.721954      	87.44552       	92.91086       	92.776024      	92.60353       	90.687805      	92.88098       	92.74088       	87.71872       	92.75862       	92.78989       	92.63394       	87.93507       	92.664566      	89.34618       	92.6262        	89.990746      	92.50472       	56.080788      	92.539696      	89.92641       	92.569374      	90.28505       	92.52153       	88.665375      	86.30256       	92.091415      	86.45172       	91.28422       	86.12316       	79.359276      	77.70987       	78.42169       	78.08454       	79.276695      	79.84039       	79.63717       	81.04856       	78.751396      	78.961334      	77.26984       	78.99354       	79.56056       	77.78006       	78.177986      	78.62669       	78.112076      	78.45549       	77.06553       	77.53838       	79.09324       	79.70145       	76.81844       	79.59229       	79.11335       	80.02755       	80.62417       	80.04827       	78.1302        	79.83902       	77.18721       	77.51939       	92.34291       	86.36753       	92.373886      	89.33368       	91.7667        	92.28161       	
92.858574      	93.08368       	93.00668       	92.89377       	92.728386      	92.523544      	91.47027       	93.032326      	92.89081       	92.66935       	92.31667       	92.82683       	93.001144      	92.83757       	92.6578        	90.04035       	93.035545      	92.94388       	92.791725      	92.57999       	92.29681       	93.01122       	92.89655       	92.70786       	84.94612       	93.03531       	92.90322       	92.77074       	90.721954      	92.89892       	92.896194      	92.72781       	87.026344      	92.79789       	92.843185      	92.674164      	89.27019       	92.92131       	92.76257       	90.41157       	92.79403       	92.85429       	92.70437       	86.48793       	92.70485       	92.5661        	86.73954       	92.594536      	87.0621        	92.57126       	80.35923       	74.337234      	92.53347       	87.200905      	92.443886      	89.09431       	92.52294       	86.49887       	92.52551       	56.16104       	92.52694       	89.32186       	92.411224      	76.47383       	78.307556      	80.2799        	77.76571       	77.21657       	78.98163       	78.13005       	80.28513       	78.68019       	78.36779       	79.120056      	76.16908       	77.06867       	77.69915       	76.70577       	78.19728       	79.22955       	79.941986      	78.50078       	79.219185      	78.80162       	78.39935       	78.99561       	79.371735      	80.53869       	79.34169       	79.97118       	79.049866      	78.71759       	78.77301       	76.59814       	78.621185      	78.83925       	92.55813       	92.31723       	90.50473       	92.452286      	
92.93043       	92.763664      	92.65401       	90.776474      	91.3296        	93.02668       	92.90778       	92.76347       	92.53514       	90.74709       	93.03888       	92.89627       	92.74317       	92.54108       	92.58513       	93.000916      	92.859055      	92.69794       	87.088425      	92.97105       	92.93031       	92.768295      	92.58298       	92.27576       	92.98538       	92.855965      	92.71652       	86.26858       	92.96824       	92.86679       	92.702705      	87.05179       	92.82758       	92.74818       	92.59175       	85.7604        	92.87055       	92.73053       	89.85413       	92.72859       	92.87363       	92.68424       	90.42312       	92.73509       	92.58003       	91.3038        	92.597404      	80.8766        	81.41315       	82.06657       	78.15283       	76.625         	79.602745      	78.40157       	81.39937       	92.50409       	80.42739       	92.50585       	73.43161       	92.47993       	81.07377       	92.41948       	77.770226      	77.95729       	77.37227       	78.203445      	76.3902        	78.33519       	80.04795       	80.07219       	79.51348       	78.544525      	78.2395        	79.32808       	78.20282       	79.87691       	78.03385       	79.6981        	78.23702       	79.04244       	78.32603       	80.17308       	80.59426       	78.035126      	78.63369       	79.053856      	80.076645      	80.66552       	80.12879       	77.73298       	78.48409       	78.34487       	77.82082       	77.45046       	75.50635       	85.864105      	92.46168       	85.82126       	92.24598       	92.38068       	
93.04841       	93.00962       	92.94431       	92.8353        	92.67143       	88.46833       	92.831245      	92.97788       	92.85125       	92.65109       	89.72262       	93.0119        	92.9482        	92.79325       	92.5844        	91.59067       	92.97672       	92.83318       	92.66928       	39.64864       	93.03969       	92.91221       	92.78152       	90.65981       	92.86394       	92.92571       	92.76668       	92.599         	91.59602       	92.90524       	92.76244       	92.58138       	89.30492       	92.88071       	92.70827       	92.53244       	92.453964      	92.870865      	92.71338       	88.11235       	92.857346      	92.7887        	92.61896       	76.91541       	92.722786      	92.46032       	91.812744      	92.55247       	86.83195       	92.56627       	83.2736        	91.68182       	85.39355       	92.21066       	87.03668       	92.54575       	87.14803       	92.44218       	86.85738       	92.244804      	86.68405       	92.297585      	82.782875      	75.36382       	76.169464      	78.24756       	77.45064       	77.07602       	80.23102       	77.21081       	78.5641        	78.81562       	78.94691       	76.72647       	80.70323       	76.48543       	79.09439       	79.20207       	78.98374       	77.46189       	80.293724      	77.735245      	77.34882       	80.166756      	76.559006      	79.29644       	76.83644       	80.516754      	80.40297       	77.973404      	77.46111       	77.80645       	76.69754       	77.97834       	75.88112       	91.18008       	92.44574       	83.427315      	92.33526       	90.03286       	
92.939064      	92.83109       	92.72576       	92.54196       	89.46694       	93.029854      	92.95324       	92.79015       	92.60917       	89.579384      	93.03431       	92.88594       	92.76193       	90.54626       	92.980286      	92.91218       	92.7641        	92.24612       	92.70473       	93.004074      	92.88144       	92.6874        	88.2835        	92.981         	92.86234       	92.689545      	84.93483       	92.98363       	92.85194       	92.70071       	89.17204       	92.96601       	92.833984      	92.66074       	89.21344       	92.968056      	92.81534       	92.67381       	71.68818       	93.00099       	92.84296       	92.653         	85.57437       	92.80976       	92.60935       	72.544846      	92.74805       	92.53782       	90.127525      	92.59554       	89.08871       	92.590614      	84.08436       	78.48386       	74.28054       	83.4665        	92.52597       	72.96233       	92.546234      	86.43208       	92.55629       	87.24499       	92.53178       	83.669266      	77.40257       	79.64204       	77.532524      	78.74254       	78.68368       	80.01404       	79.577774      	79.76138       	81.16601       	76.67185       	77.85469       	77.26499       	77.87539       	79.73183       	79.24636       	80.4434        	79.973915      	80.75511       	80.618576      	81.64234       	80.01701       	77.37272       	79.55398       	79.732796      	80.16734       	78.85894       	76.67462       	79.36338       	78.04849       	78.01528       	86.908455      	92.45005       	90.095604      	92.53169       	86.923706      	92.438416      	
61.31546       	92.458084      	93.04035       	92.950424      	92.81433       	92.63581       	83.78533       	93.039474      	92.90385       	92.76748       	90.693954      	93.00744       	92.93216       	92.77981       	85.98052       	93.00986       	92.859276      	92.713684      	90.19609       	93.03695       	92.96298       	92.79356       	89.6292        	92.8444        	92.95679       	92.82202       	92.60778       	91.929855      	92.93955       	92.79174       	92.62305       	90.51048       	92.98716       	92.81867       	92.64731       	88.10435       	92.9318        	92.801         	92.62465       	90.52335       	92.883354      	92.710976      	85.33788       	92.77078       	92.62193       	86.5411        	92.714424      	92.55908       	89.94569       	92.66081       	86.21362       	92.58436       	92.453804      	90.611824      	92.460075      	89.77014       	92.13044       	85.61759       	92.60096       	86.13389       	91.76393       	92.487076      	75.07072       	92.46176       	78.68535       	77.822586      	79.4367        	77.78783       	78.835236      	78.526726      	77.53405       	78.16693       	77.98254       	79.91          	77.23789       	82.92238       	79.403046      	78.57572       	79.57898       	80.259575      	79.95585       	79.76113       	78.80327       	78.57186       	79.15485       	79.53328       	80.5029        	81.41059       	81.007774      	78.34649       	78.97009       	78.37262       	75.784         	92.46747       	89.03931       	91.71646       	91.895065      	91.004654      	91.796074      	80.08783       	
76.02535       	92.89339       	93.02645       	92.95191       	92.79372       	92.61857       	91.482605      	93.00899       	92.87885       	92.70888       	86.68643       	92.94789       	92.82441       	92.67536       	83.8946        	92.977394      	92.83992       	92.66071       	87.88254       	93.03334       	92.89215       	92.74835       	89.67753       	93.02782       	92.91106       	92.763336      	86.57239       	92.998146      	92.93722       	92.74757       	90.49079       	92.9555        	92.96312       	92.79034       	92.25899       	91.82248       	92.96244       	92.791115      	92.35427       	92.54577       	92.82631       	92.61692       	80.3468        	92.81131       	92.65103       	86.31725       	92.77483       	87.85193       	92.37769       	92.56119       	85.5697        	92.65317       	87.2057        	92.43939       	90.41541       	91.899         	90.02283       	91.60261       	92.54071       	88.2346        	92.59298       	86.574135      	92.44898       	86.34708       	83.32635       	92.4709        	78.067406      	80.51469       	77.41651       	78.63446       	81.16219       	79.62          	77.933655      	76.78235       	54.30145       	92.52726       	86.73948       	92.56958       	92.369896      	91.262596      	92.49702       	82.691925      	85.02449       	92.351234      	76.77388       	91.738754      	76.81207       	75.201614      	78.97454       	79.018936      	78.50889       	77.210976      	76.55604       	76.69851       	85.96973       	92.46588       	73.22146       	92.38743       	84.24248       	91.56051       	
92.995026      	92.85696       	92.781555      	92.657524      	85.75119       	92.76445       	92.941444      	92.7965        	92.60314       	91.8612        	92.85922       	92.73292       	92.55855       	91.77338       	92.90769       	92.74862       	91.33696       	92.59394       	92.947426      	92.79485       	90.61443       	92.83941       	92.964775      	92.802246      	92.46422       	92.51056       	92.97868       	92.83637       	92.62586       	90.05871       	93.00179       	92.857056      	92.67209       	89.39252       	93.06774       	92.913574      	92.71609       	87.7554        	93.00708       	92.91142       	92.70441       	87.66874       	92.90362       	92.77445       	92.540985      	90.48223       	92.69766       	92.36636       	92.01502       	92.636505      	85.55644       	92.69532       	92.45662       	91.278564      	92.47738       	87.99667       	92.53814       	89.15509       	92.60356       	85.59031       	91.75712       	90.219406      	78.31335       	79.22838       	79.46541       	77.50377       	79.94732       	77.36919       	78.03101       	79.36733       	77.900276      	76.61151       	77.60124       	83.01064       	91.488655      	92.451935      	85.5192        	92.57298       	92.36881       	89.47517       	92.55666       	92.12982       	91.7701        	92.43234       	88.9789        	92.402626      	85.92568       	92.36549       	88.19976       	76.633896      	75.93353       	79.00803       	77.79185       	78.63722       	92.41778       	86.43078       	92.562744      	87.08079       	92.44227       	92.41318       	
87.69815       	92.868195      	92.80436       	92.68373       	92.25898       	92.266785      	92.82663       	92.69385       	87.5077        	92.58582       	92.79129       	92.66225       	89.603806      	92.90474       	92.77964       	92.615616      	86.81654       	92.95392       	92.78766       	92.62088       	92.2536        	92.93023       	92.78614       	92.5959        	92.46352       	92.95504       	92.78367       	92.24812       	92.88288       	92.9823        	92.80026       	92.57637       	91.44429       	93.07486       	92.87297       	92.69075       	76.49766       	93.05295       	92.887215      	92.65774       	86.3961        	92.991035      	92.758026      	92.53598       	91.54906       	92.76311       	92.53675       	87.14857       	92.66316       	85.56928       	92.56972       	92.62314       	87.25732       	92.67294       	88.67992       	92.62218       	92.33922       	90.84878       	92.59904       	88.282486      	92.61594       	92.302704      	91.127144      	92.54193       	78.759865      	92.559265      	86.9733        	78.47685       	77.32044       	77.05526       	78.382034      	92.53645       	92.42544       	73.483406      	92.593346      	92.36025       	91.80009       	92.53505       	88.61962       	92.45298       	92.48332       	88.12154       	92.52662       	92.430855      	88.71724       	92.46983       	85.62135       	91.39504       	92.28854       	79.92459       	77.51882       	77.73912       	77.435974      	77.51931       	76.994576      	92.22469       	92.34835       	89.082436      	92.46997       	90.18001       	
85.452866      	91.84902       	92.7985        	92.69848       	92.57347       	88.65933       	92.80727       	92.64192       	88.41963       	92.85923       	92.74588       	92.56766       	91.52379       	92.86585       	92.68518       	85.08609       	92.612625      	92.66712       	92.56508       	85.21567       	92.94349       	92.78181       	92.21069       	92.7209        	92.966484      	92.78852       	85.08729       	92.88868       	92.9666        	92.81344       	92.565445      	92.27147       	93.0489        	92.87552       	92.63221       	90.32683       	93.04481       	92.86183       	92.629196      	92.234825      	92.9303        	92.72482       	90.41287       	92.846054      	92.70098       	92.444695      	87.93932       	92.81654       	92.53461       	89.72533       	92.72787       	92.23393       	91.68497       	92.72639       	90.77035       	91.70229       	92.665276      	90.33515       	92.67145       	92.470314      	91.31981       	92.573166      	85.98225       	92.674255      	89.397575      	90.68806       	92.52295       	80.187164      	76.92765       	77.917366      	91.35096       	92.514114      	88.68969       	92.692986      	92.50475       	88.16955       	92.72885       	92.57395       	85.19743       	92.54627       	92.52874       	88.56607       	92.18116       	92.5407        	85.83193       	92.19863       	92.498405      	88.09586       	91.98583       	92.408134      	80.68013       	80.59159       	75.89196       	73.94637       	92.37798       	88.80981       	92.321205      	90.46398       	91.38059       	92.49801       	
85.77347       	90.81275       	92.76518       	92.684         	86.54593       	91.702095      	92.700745      	88.80292       	92.630135      	92.68173       	85.27239       	92.46373       	92.73497       	86.57459       	92.24788       	92.76662       	92.5958        	89.40841       	92.936745      	92.79006       	85.9683        	92.89329       	92.92144       	92.742424      	87.1836        	93.09217       	92.968765      	92.779274      	90.33969       	92.988495      	93.05803       	92.86948       	92.67788       	89.03937       	93.14063       	92.952614      	92.76124       	84.906395      	93.10743       	92.90645       	92.67624       	85.040245      	93.02857       	92.820206      	92.57996       	90.96452       	92.8653        	92.5999        	73.48476       	92.880936      	92.60966       	88.15928       	92.88068       	92.63842       	88.254105      	92.804504      	92.57148       	85.419304      	92.775826      	92.56242       	86.84663       	92.594734      	86.234474      	92.69092       	88.7626        	70.2234        	92.57999       	86.89816       	88.96411       	92.637245      	86.388954      	91.926056      	92.61196       	92.382034      	91.04272       	92.660805      	92.44008       	85.96468       	92.70531       	92.490364      	85.08152       	92.69062       	92.54278       	85.635666      	92.391075      	92.581406      	92.38193       	87.776436      	92.58902       	92.37943       	87.98111       	92.47975       	92.2397        	89.70146       	92.48747       	90.14831       	92.53177       	86.639915      	91.64826       	92.41141       	
85.773605      	90.67751       	92.7092        	92.62942       	86.841225      	92.44706       	92.60215       	83.52349       	92.62332       	87.18844       	92.686676      	92.57155       	85.49064       	92.79925       	92.621445      	86.37957       	92.90472       	92.78534       	92.27441       	91.98709       	92.93421       	92.77296       	89.80965       	93.043564      	93.00578       	92.82058       	87.34946       	92.99144       	93.099525      	92.9055        	92.695625      	82.625175      	93.23047       	93.06258       	92.861465      	88.4023        	93.16871       	93.05864       	92.857796      	85.05049       	92.92757       	92.87142       	92.73475       	88.063324      	92.808         	92.80685       	92.60442       	87.70886       	92.900665      	92.66498       	83.12991       	92.86658       	92.65506       	87.75754       	92.911995      	92.685394      	87.72406       	92.84871       	92.632706      	79.4894        	92.767586      	92.54363       	89.84756       	92.677826      	88.58385       	92.56276       	92.599655      	88.1537        	92.75255       	92.58511       	90.01181       	92.74571       	92.56273       	84.55914       	92.50225       	92.598045      	92.3912        	91.786194      	92.677246      	92.47825       	84.74033       	92.71434       	92.56792       	88.5211        	92.4225        	92.6446        	92.41908       	90.00074       	92.66574       	92.50443       	85.9725        	92.417244      	92.46257       	86.13192       	92.41545       	92.45566       	87.84101       	92.543526      	89.58301       	92.538345      	
92.59656       	85.46013       	92.58737       	92.6153        	89.999176      	92.563156      	90.65419       	91.93526       	92.55834       	86.58187       	92.58876       	87.25983       	92.65998       	92.51471       	91.308464      	92.72554       	92.5321        	92.05748       	92.83482       	92.6482        	87.48923       	93.04758       	92.88714       	92.69283       	87.152855      	93.178375      	93.01596       	92.81684       	87.77601       	92.9286        	93.1002        	92.89757       	92.66189       	91.42459       	93.17862       	93.00395       	92.83309       	87.684975      	93.21857       	93.01815       	92.79439       	90.258064      	93.06281       	92.92271       	92.703545      	87.868416      	93.05257       	92.84056       	92.60332       	90.983765      	92.93807       	92.687584      	84.04202       	92.88261       	92.67582       	84.24052       	92.84964       	92.61845       	88.42703       	92.787575      	92.5705        	89.46309       	92.74177       	92.481735      	92.11573       	92.69345       	90.346756      	92.38346       	92.668396      	92.43287       	89.081245      	92.7522        	92.51752       	86.88333       	92.75773       	92.61875       	92.43485       	89.75808       	92.51871       	92.317856      	86.74524       	92.21737       	92.634285      	92.46849       	85.274864      	92.7431        	92.61643       	92.40009       	88.96117       	92.701836      	92.53654       	92.289154      	91.20857       	92.60967       	92.41208       	88.86248       	92.57227       	92.382065      	91.24985       	92.58137       	
86.653366      	91.59283       	92.66075       	88.02411       	91.01413       	92.58259       	80.81671       	92.46349       	89.79113       	92.45582       	89.72209       	92.51353       	75.27105       	92.537994      	92.62434       	88.21118       	92.78165       	92.62737       	84.85275       	92.89636       	92.73239       	88.973434      	93.0556        	92.91629       	92.7175        	87.19942       	93.176735      	93.04605       	92.8237        	87.45342       	92.95342       	93.14065       	92.93874       	92.68892       	91.11753       	93.17785       	93.01288       	92.78608       	80.72265       	93.204285      	93.02825       	92.830894      	90.640884      	93.09704       	92.92389       	92.683395      	86.50763       	93.014946      	92.80716       	85.03646       	92.76117       	92.841965      	86.66885       	92.49494       	92.78516       	87.99753       	92.82545       	92.75687       	88.07612       	92.827126      	92.74485       	88.29448       	92.616684      	92.79328       	92.56643       	89.27002       	92.79666       	92.581505      	87.588066      	92.83529       	92.71304       	92.49755       	76.83465       	92.81822       	92.65298       	92.43981       	81.01375       	92.77131       	92.59109       	90.03636       	92.607796      	92.71215       	92.53707       	87.3678        	92.629074      	92.75109       	92.52901       	87.89267       	92.48901       	92.69371       	92.50762       	89.915276      	92.24271       	92.63475       	92.43241       	90.60881       	92.6349        	92.43462       	77.1787        	92.650955      	
77.61207       	77.905014      	76.85053       	74.790955      	77.82792       	76.387375      	92.580154      	87.9442        	92.53655       	78.617386      	76.59084       	92.42004       	86.41256       	92.59686       	86.8906        	91.81865       	92.67357       	86.08365       	92.71146       	92.683464      	88.251595      	93.00285       	92.90012       	92.68305       	80.25818       	93.18357       	92.995926      	92.8071        	89.34859       	93.2185        	93.11321       	92.92071       	87.5887        	92.89623       	93.15077       	92.955414      	92.735886      	92.40173       	93.21108       	93.03237       	92.800385      	86.72405       	93.10967       	92.927986      	92.678764      	90.7164        	93.08472       	92.8492        	90.49472       	92.88228       	92.91178       	92.67726       	91.00235       	92.86654       	90.83842       	92.168564      	92.803955      	85.730804      	92.72983       	92.76326       	86.68643       	92.544556      	92.81402       	92.61765       	89.78802       	92.85343       	92.63633       	90.45789       	92.91314       	92.852135      	92.64932       	89.28332       	92.68597       	92.83314       	92.65667       	92.40975       	90.0193        	92.78503       	92.603516      	92.38313       	90.729065      	92.76449       	92.61469       	92.3914        	91.97393       	92.74095       	92.59023       	92.36236       	91.47564       	92.77664       	92.601135      	92.40845       	86.92978       	92.71555       	92.579735      	87.59784       	92.405235      	92.65722       	92.45708       	76.93374       	
78.14904       	75.13175       	73.95197       	77.70899       	87.122475      	87.74281       	90.820274      	81.817         	74.333275      	77.83199       	77.767784      	73.96648       	90.5144        	88.645676      	78.976654      	77.41419       	92.75183       	92.56989       	92.54737       	92.76258       	92.57666       	91.24352       	92.99349       	92.82286       	92.60175       	92.154434      	93.19609       	93.00484       	92.77085       	88.84559       	93.3255        	93.14485       	92.96549       	90.44073       	93.29212       	93.17415       	92.9467        	90.585304      	92.96029       	93.16016       	92.94169       	92.71077       	80.01672       	93.17697       	93.00521       	92.786446      	87.91706       	93.143715      	92.98604       	92.75483       	88.49217       	93.06299       	92.868         	88.361374      	92.771774      	92.834915      	92.62611       	91.41532       	92.949265      	92.73963       	89.85775       	92.99096       	92.8477        	92.62486       	82.08333       	92.96669       	92.81715       	92.59826       	89.7723        	93.014435      	92.848366      	92.65833       	90.218506      	92.77404       	92.849014      	92.67809       	92.46668       	89.61619       	92.8264        	92.68597       	92.46674       	83.658585      	92.86516       	92.71256       	92.5391        	89.58092       	92.865         	92.74752       	92.58908       	88.01454       	92.59648       	92.722755      	92.56925       	92.35023       	92.45866       	92.70854       	92.537224      	85.66574       	92.72102       	92.6126        	
78.229095      	76.98629       	74.41732       	76.600586      	79.21714       	79.7644        	75.24407       	80.156235      	77.86919       	77.465744      	75.252655      	89.40067       	88.13586       	92.354515      	82.61551       	81.711266      	92.28036       	92.74334       	87.8709        	92.68561       	92.98046       	92.81073       	86.972374      	93.10277       	93.14738       	92.97435       	92.73614       	91.400276      	93.72727       	93.61866       	93.50024       	93.39231       	93.22143       	93.005         	86.47399       	93.49126       	93.39329       	93.248436      	93.095566      	92.85516       	92.461296      	93.18795       	93.15999       	93.014084      	92.76745       	81.756905      	93.09973       	93.01903       	92.88301       	92.406105      	92.73265       	93.0112        	92.89643       	92.71827       	87.440994      	93.1076        	92.95527       	92.7606        	78.16451       	93.10311       	92.93368       	92.72747       	90.43311       	93.10294       	92.99065       	92.80512       	92.57362       	92.59004       	93.03328       	92.87457       	92.65926       	87.19674       	92.974724      	92.878975      	92.70411       	92.47529       	81.07566       	92.93281       	92.78945       	92.5939        	87.22586       	92.860115      	92.86277       	92.708786      	92.516235      	83.7688        	92.88262       	92.73603       	92.57091       	92.188644      	92.4681        	92.75738       	92.63134       	92.436356      	85.88013       	92.67577       	92.54228       	92.30734       	91.968925      	92.671074      	
77.58598       	76.15505       	76.66941       	76.9675        	78.869705      	77.821594      	76.57296       	76.71969       	80.339134      	80.595764      	76.857414      	74.2914        	75.35071       	92.64339       	86.51557       	92.73925       	92.72395       	89.30429       	92.38467       	92.80621       	92.58272       	87.59777       	93.17923       	93.18813       	92.9722        	92.79241       	89.89314       	93.68254       	93.55233       	93.45514       	93.30881       	93.1282        	86.58763       	93.418655      	93.44137       	93.33766       	93.1903        	93.009834      	86.7944        	93.37002       	93.30218       	93.20672       	93.02865       	92.83826       	92.78367       	93.19034       	93.061424      	92.86347       	87.41347       	93.170586      	93.10503       	92.962         	85.03654       	92.92894       	93.10529       	92.93735       	92.72889       	91.013794      	93.08177       	92.913704      	92.72222       	90.53778       	93.10642       	92.95864       	92.77517       	87.06625       	93.08732       	93.0416        	92.89735       	92.704865      	89.405136      	93.0834        	92.95504       	92.80334       	92.56881       	84.93297       	93.012         	92.86413       	92.69007       	92.497765      	74.91526       	92.98028       	92.83662       	92.70931       	92.51619       	90.12183       	92.884964      	92.73719       	92.55142       	87.22445       	92.66626       	92.80971       	92.625206      	92.42756       	84.95665       	92.79132       	92.66633       	92.46968       	89.484535      	92.74764       	
78.87958       	77.613884      	76.34862       	75.401245      	77.33785       	76.77876       	75.93914       	75.43569       	77.69846       	89.910866      	92.59724       	87.984886      	92.68435       	89.45321       	92.70857       	92.59666       	82.69669       	93.03228       	92.87314       	92.63903       	91.97122       	93.26981       	93.0676        	92.87143       	77.83512       	93.54158       	93.4161        	93.28598       	93.083244      	87.753         	93.32818       	93.43125       	93.306175      	93.16288       	92.944176      	92.99488       	93.36002       	93.2562        	93.100235      	92.899185      	88.693306      	93.31409       	93.22162       	93.08738       	92.92225       	88.05035       	93.183174      	93.06957       	92.90593       	87.18799       	93.100494      	93.02915       	92.89136       	89.77678       	92.71465       	92.75884       	92.59249       	90.01815       	92.80751       	93.00186       	92.830894      	92.6128        	92.447464      	93.03864       	92.90219       	92.71548       	86.819565      	93.098816      	92.99432       	92.84884       	92.62821       	87.1206        	93.05925       	92.92397       	92.769905      	92.52902       	71.89397       	92.98241       	92.85182       	92.69333       	92.501076      	75.45776       	92.98839       	92.87044       	92.69379       	92.54928       	86.686775      	92.84584       	92.7052        	92.53067       	86.638435      	92.66896       	92.762         	92.593185      	92.42204       	81.449295      	92.73885       	92.59549       	92.3595        	90.33501       	
77.51143       	75.52728       	78.00962       	79.521614      	76.988266      	76.05237       	78.24918       	80.12069       	77.7319        	76.619934      	57.968143      	92.515884      	89.450615      	92.55129       	88.78564       	92.4664        	92.48152       	86.95586       	93.19892       	93.04596       	92.84151       	87.05677       	93.301315      	93.16147       	92.974785      	91.016235      	93.40214       	93.294426      	93.119545      	89.7047        	93.24214       	93.29462       	93.210304      	93.063255      	88.65271       	93.2408        	93.14466       	93.02437       	92.83233       	88.44198       	93.30974       	93.18958       	93.050476      	92.84871       	91.37837       	93.06273       	92.94411       	90.50008       	92.3327        	92.737         	92.64868       	88.13251       	92.992226      	92.9721        	92.831726      	90.46911       	92.8951        	92.99543       	92.83473       	92.60573       	92.2434        	93.050896      	92.90317       	92.68474       	72.20957       	93.12138       	92.980255      	92.83861       	92.61089       	86.91643       	93.055916      	92.92227       	92.71248       	92.52035       	87.66835       	93.006546      	92.870186      	92.74066       	92.51165       	87.1371        	93.023994      	92.89713       	92.72697       	92.54393       	84.95228       	92.90015       	92.76152       	92.61076       	92.394066      	81.41297       	92.83057       	92.714905      	92.545944      	88.96932       	92.53416       	92.720024      	92.550446      	92.33448       	91.701836      	92.75969       	
80.13684       	76.94847       	74.953896      	73.06438       	80.382324      	76.99804       	76.04421       	79.3329        	76.76126       	92.35773       	78.30577       	92.55202       	78.63592       	92.61679       	88.53177       	92.72828       	92.57096       	87.519005      	93.05807       	92.864395      	92.63646       	92.76452       	93.29078       	93.118065      	92.91041       	89.19929       	93.41389       	93.26816       	93.10689       	88.4875        	93.41847       	93.31841       	93.16344       	90.69254       	93.33394       	93.297226      	93.17024       	93.0171        	90.249855      	93.264046      	93.23484       	93.1263        	92.97073       	89.98782       	93.06993       	93.0776        	92.90125       	78.32166       	93.06785       	92.947296      	92.72208       	89.99588       	93.06297       	92.91474       	92.68254       	86.43001       	93.04418       	92.92822       	92.73895       	79.64936       	93.09702       	92.97968       	92.801285      	87.77064       	92.99575       	93.04937       	92.92801       	92.717865      	89.94536       	93.10988       	92.97171       	92.816284      	92.60029       	73.72645       	93.049034      	92.930984      	92.77003       	92.59854       	87.03021       	92.92334       	92.93185       	92.77428       	92.62276       	89.9138        	92.76979       	92.78337       	92.62932       	92.46198       	90.32477       	92.8217        	92.72234       	92.541374      	92.3297        	88.72717       	92.75516       	92.5952        	92.39965       	82.55664       	92.7849        	92.62436       	
76.23609       	75.47854       	77.354485      	79.05824       	76.82104       	82.104454      	76.77896       	78.01799       	76.45993       	92.517555      	78.08934       	92.549576      	78.38393       	92.593056      	88.4707        	92.706856      	88.56088       	92.93499       	92.96863       	92.75698       	89.47402       	93.446175      	93.352745      	93.18722       	92.99648       	90.5514        	93.396065      	93.26603       	93.122826      	88.65003       	93.43638       	93.32888       	93.199776      	92.91615       	92.97836       	93.33236       	93.23001       	93.1057        	92.902626      	92.10276       	93.27305       	93.1868        	93.06281       	92.87539       	87.810776      	93.14002       	93.02024       	92.831406      	87.43563       	93.070465      	92.926865      	92.73594       	88.95656       	92.74026       	92.55454       	92.38369       	78.914024      	92.92428       	92.82011       	92.633415      	87.635826      	93.05248       	92.94158       	92.78188       	89.61235       	92.979866      	93.06577       	92.92704       	92.721115      	77.69104       	93.085304      	92.957664      	92.79448       	92.57721       	87.975426      	93.03866       	92.868385      	92.71813       	92.51764       	76.208         	93.00061       	92.859924      	92.6917        	92.5323        	90.286896      	92.8671        	92.784         	92.62575       	92.434166      	86.90683       	92.77517       	92.712006      	92.52678       	92.345726      	89.82691       	92.75207       	92.61365       	92.42435       	89.83753       	92.80066       	
79.6328        	75.90063       	75.77398       	78.29901       	76.656784      	78.72121       	75.15107       	77.028175      	83.21894       	92.51095       	78.46558       	92.311966      	88.570984      	92.6304        	87.37163       	92.7421        	89.79887       	92.96122       	92.97147       	92.78287       	87.27857       	93.447784      	93.32874       	93.20759       	93.03199       	89.17465       	93.43069       	93.30794       	93.17506       	86.07089       	93.45497       	93.36943       	93.25347       	93.12485       	90.39039       	93.36661       	93.293205      	93.16912       	93.02572       	90.782974      	93.07872       	93.216545      	93.112526      	92.96759       	90.81407       	92.86798       	93.051155      	92.89404       	88.50037       	92.97083       	92.86749       	92.73362       	85.14957       	92.87188       	92.996605      	92.85105       	92.49304       	91.825775      	92.95367       	92.81774       	92.609924      	92.46279       	93.03914       	92.89607       	92.72992       	90.394646      	93.08291       	92.94454       	92.75906       	89.571144      	93.11351       	92.98666       	92.82252       	92.63291       	86.59206       	92.99268       	92.821815      	92.661736      	92.45796       	85.32039       	92.983986      	92.812065      	92.663895      	92.50788       	90.20228       	92.86837       	92.742714      	92.587814      	92.417206      	89.177864      	92.83502       	92.7273        	92.53578       	92.31923       	79.20275       	92.821785      	92.66704       	92.47879       	86.304794      	92.62071       	
78.51042       	77.73457       	77.79526       	72.646904      	77.07881       	78.870834      	78.16264       	76.81441       	73.25696       	85.724525      	92.61433       	79.6007        	92.62749       	85.561874      	92.305435      	88.85299       	92.93838       	92.95122       	92.70673       	80.98258       	93.24741       	93.11794       	92.91611       	86.36077       	93.44671       	93.350204      	93.221855      	88.9788        	93.34631       	93.37803       	93.263824      	93.1433        	91.091515      	93.365326      	93.28234       	93.15981       	92.991486      	83.02279       	93.31843       	93.20406       	93.08673       	92.944176      	87.70306       	93.10054       	93.09668       	92.964966      	92.80519       	85.2499        	93.04933       	92.926414      	92.75143       	84.75204       	93.01816       	92.89354       	92.70944       	84.965294      	93.025826      	92.882774      	92.73748       	88.963455      	93.06955       	92.94918       	92.768196      	79.99899       	93.09877       	92.94168       	92.78876       	89.76495       	92.99546       	92.936745      	92.78321       	92.64351       	90.62482       	93.08679       	92.937874      	92.79382       	92.60874       	87.51018       	93.00031       	92.92854       	92.76762       	92.596954      	92.379265      	92.55967       	92.84926       	92.70491       	92.53252       	92.32723       	88.9742        	92.852974      	92.68318       	92.527664      	92.29191       	90.009384      	92.859634      	92.71114       	92.52709       	92.30032       	92.041565      	92.86624       	
79.112144      	77.66321       	79.12752       	74.763664      	78.18708       	76.54709       	77.2107        	75.17942       	74.62653       	92.55385       	90.35644       	92.42543       	92.57573       	79.83943       	92.74214       	84.941795      	92.605934      	92.93931       	92.693665      	85.05811       	93.2532        	93.13294       	92.92682       	78.523705      	93.45482       	93.35752       	93.231865      	89.94874       	93.32337       	93.39829       	93.28803       	93.14095       	85.24316       	93.421844      	93.31329       	93.17616       	93.0302        	85.024796      	93.26752       	93.19552       	93.08817       	92.92977       	87.459015      	92.99765       	93.0993        	92.97928       	92.82535       	82.90118       	93.06734       	92.942055      	92.779144      	84.96964       	93.00039       	92.89809       	92.73094       	87.75333       	93.00386       	92.90817       	92.7385        	90.47566       	93.10741       	92.98864       	92.855774      	81.39413       	93.11575       	92.98          	92.832664      	90.00501       	93.07252       	93.10236       	92.949585      	92.765594      	86.83738       	93.07261       	93.034065      	92.89637       	92.7056        	92.49984       	90.4073        	92.96993       	92.84042       	92.669655      	92.4799        	88.71948       	92.84559       	92.77885       	92.63426       	92.479164      	89.60953       	92.75785       	92.771065      	92.636475      	92.46615       	89.0223        	92.743706      	92.81499       	92.63303       	92.45489       	88.53812       	92.9182        	
80.76608       	78.108864      	76.4736        	77.861435      	74.37649       	74.97385       	79.79625       	76.50895       	77.37411       	88.89484       	92.61461       	87.14712       	92.68531       	79.71911       	92.73781       	88.16329       	92.772125      	92.82278       	92.5788        	92.29598       	93.149055      	92.9756        	92.17187       	92.89388       	93.45808       	93.3213        	93.19166       	90.01411       	93.38004       	93.358795      	93.23213       	93.07433       	90.11352       	93.31239       	93.19255       	93.065025      	92.98838       	92.86874       	92.55122       	93.22825       	93.10568       	92.97991       	92.79977       	91.46618       	93.105675      	92.98051       	92.822075      	85.66372       	93.03086       	92.948044      	92.80161       	88.752594      	92.923065      	92.9295        	92.754906      	87.403435      	92.78977       	92.88039       	92.741615      	86.78079       	92.841125      	92.89223       	92.792946      	85.97485       	93.05835       	92.93889       	92.782         	92.61694       	92.600914      	93.13745       	92.99393       	92.81798       	92.24434       	92.91764       	93.0136        	92.83673       	92.68951       	92.5101        	88.06822       	92.94504       	92.79093       	92.63678       	92.45066       	90.0701        	92.52318       	92.51511       	92.34525       	92.245575      	91.68376       	92.48669       	92.8187        	92.65081       	92.48174       	92.25646       	92.17325       	92.83114       	92.69461       	92.54164       	92.28708       	92.31117       	
78.723305      	78.60258       	77.65631       	77.540245      	92.36179       	89.21817       	77.19237       	77.09414       	77.37737       	78.3988        	92.57522       	88.48023       	92.502975      	92.619896      	88.439384      	92.827156      	92.36208       	92.47847       	92.98375       	92.78169       	86.4221        	93.36365       	93.27544       	93.130646      	92.935         	92.90664       	93.40402       	93.263054      	93.11284       	90.5225        	93.3304        	93.21818       	93.079666      	93.014114      	85.620445      	93.34821       	93.194916      	93.07006       	92.91459       	87.13334       	93.19678       	93.07905       	92.93871       	92.785965      	86.81555       	93.085175      	92.983765      	92.82293       	90.044495      	92.918274      	92.87246       	92.71071       	87.625534      	92.99593       	92.851456      	92.686905      	89.88797       	92.935616      	92.82351       	92.67441       	79.99885       	93.09195       	92.97941       	92.82285       	87.52971       	93.112595      	93.03866       	92.89633       	92.689606      	91.617256      	93.09958       	92.98095       	92.806656      	92.62087       	92.789276      	93.04227       	92.90001       	92.690796      	92.51413       	90.40666       	92.92561       	92.80289       	92.65007       	92.50033       	92.28635       	91.383644      	92.82224       	92.66878       	92.4949        	92.27934       	90.105675      	92.842705      	92.70398       	92.521904      	92.3021        	87.12912       	92.90772       	92.7722        	92.59928       	92.397675      	
64.39193       	92.20662       	89.69041       	90.95527       	91.8624        	87.28829       	87.85513       	76.882065      	77.778         	75.301956      	72.75876       	76.149796      	91.985466      	92.472664      	91.28306       	92.69588       	85.15051       	93.02584       	92.92348       	92.70064       	91.73492       	93.14953       	93.01952       	89.97012       	93.187775      	93.314         	93.19312       	93.051865      	89.272125      	93.157745      	93.11642       	93.02076       	88.81885       	93.107574      	93.07555       	92.98813       	91.256874      	92.06873       	93.16547       	93.04931       	92.89437       	89.71158       	92.88966       	93.01919       	92.89622       	92.7239        	85.32397       	92.96643       	92.84787       	92.67272       	78.84247       	92.9217        	92.78077       	92.58196       	90.11091       	92.82154       	92.71787       	92.51486       	91.90714       	92.87098       	92.696465      	90.36217       	92.774826      	93.04758       	92.92004       	92.72448       	87.841606      	93.18622       	93.04808       	92.88798       	86.33601       	92.995155      	93.06813       	92.8811        	92.73222       	92.53857       	92.647804      	92.983         	92.82705       	92.6615        	92.45741       	84.25198       	92.817696      	92.79806       	92.6422        	92.466446      	92.231285      	92.405304      	92.80072       	92.64529       	92.49122       	92.26681       	89.45607       	92.90272       	92.75469       	92.58212       	92.397194      	74.0106        	92.9825        	92.86262       	
90.61979       	92.562355      	89.14207       	91.91422       	92.577354      	89.63294       	92.57606       	82.110664      	77.100555      	77.12667       	76.79052       	76.94781       	76.18396       	91.19547       	92.62827       	43.401627      	92.63217       	92.44116       	89.804794      	92.95488       	92.76373       	89.58616       	93.31143       	93.17434       	93.04234       	89.70539       	93.26271       	93.29101       	93.16818       	86.36045       	93.33793       	93.292656      	93.13595       	89.965614      	93.29983       	93.16081       	93.02347       	86.41904       	93.16676       	93.03729       	92.89849       	92.714584      	91.43654       	93.01497       	92.895195      	92.71647       	89.74072       	92.63788       	92.484436      	92.37607       	91.21809       	92.82504       	92.6767        	90.23678       	92.909676      	92.79367       	92.5863        	86.948395      	92.974655      	92.833145      	92.63396       	83.53721       	93.126144      	92.96053       	92.83754       	87.19377       	93.17182       	93.08198       	92.924934      	92.60638       	92.82695       	93.070595      	92.88528       	92.70197       	82.07862       	93.09409       	92.93119       	92.72019       	92.55994       	90.44327       	92.69748       	92.83487       	92.68339       	92.51713       	92.31845       	70.57618       	92.87613       	92.7219        	92.58642       	92.3756        	86.62277       	92.9239        	92.84934       	92.67327       	92.493         	86.47803       	92.826225      	92.898285      	92.746735      	92.56889       	
92.5724        	89.40083       	89.84957       	92.64937       	88.59265       	74.37048       	78.457375      	77.87623       	77.11837       	78.58752       	75.17433       	79.71492       	91.86769       	92.637436      	83.99522       	92.70549       	80.45742       	89.469124      	92.28504       	84.7002        	93.07877       	92.988716      	92.80617       	92.24176       	93.30066       	93.176765      	93.01737       	81.737274      	93.30577       	93.16036       	93.00838       	86.186455      	93.29159       	93.15081       	92.52393       	88.08648       	81.56444       	93.01555       	93.11283       	92.95789       	92.793564      	89.87737       	93.06804       	92.92049       	92.76101       	85.34392       	92.892365      	92.86808       	92.69427       	85.11231       	92.84406       	92.726265      	92.53277       	91.68787       	92.73069       	92.529236      	89.12186       	92.84377       	92.66661       	90.04481       	92.89143       	93.00617       	92.84177       	92.65051       	92.108284      	93.10656       	92.955734      	92.78875       	85.135635      	93.14184       	92.97291       	92.82348       	87.68127       	93.00126       	92.85945       	92.68243       	86.930664      	92.85845       	92.887375      	92.7292        	92.56861       	92.33604       	83.77639       	92.84508       	92.69759       	92.5234        	92.325195      	87.399025      	92.84941       	92.71111       	92.57143       	92.40209       	89.3451        	92.94702       	92.85542       	92.69051       	92.52676       	89.02929       	92.93524       	92.86024       	
92.60266       	86.01736       	92.18477       	92.65577       	83.144936      	82.31156       	77.79409       	77.85697       	75.75105       	77.82357       	78.383896      	78.95445       	79.80259       	77.93831       	77.98568       	80.241844      	76.77459       	76.29905       	81.328575      	92.94602       	92.79887       	84.55311       	93.19258       	93.0639        	92.89545       	91.172745      	93.253456      	93.08522       	89.15847       	93.15686       	93.203865      	93.03385       	73.65894       	93.23038       	93.054         	86.38127       	93.06207       	93.01933       	92.87282       	88.209114      	92.61741       	92.97675       	92.8086        	92.60478       	92.26159       	92.86845       	92.72864       	89.33936       	92.65959       	92.68623       	89.90986       	92.555504      	92.62699       	84.77974       	92.38939       	92.69674       	92.46354       	77.20785       	92.809715      	92.650276      	89.90715       	92.92962       	92.98712       	92.830025      	92.63157       	92.65394       	93.06341       	92.901375      	92.71629       	91.49748       	93.00894       	92.83343       	86.9438        	92.86058       	92.778114      	92.61659       	90.3069        	92.972755      	92.79965       	92.65886       	92.47359       	89.90806       	92.68167       	92.78683       	92.620255      	92.451385      	92.247986      	91.18005       	92.845634      	92.69172       	92.52923       	92.332726      	88.41237       	92.9483        	92.78864       	92.65202       	92.434654      	91.39041       	92.93347       	92.78333       	
91.44829       	85.482735      	92.653656      	87.83032       	78.379456      	79.60439       	76.88182       	74.854485      	75.98754       	76.11474       	78.44128       	76.9617        	77.737495      	78.22149       	77.94315       	77.83056       	77.40549       	76.78507       	77.31009       	92.91364       	92.7612        	78.44072       	93.12483       	92.99866       	88.19041       	93.016495      	93.12488       	92.997246      	36.002834      	92.80806       	92.818245      	92.7301        	90.22967       	93.19085       	93.00291       	86.35527       	92.990486      	93.04323       	92.90139       	92.690384      	90.772835      	92.95365       	92.8065        	92.60055       	89.92045       	92.80949       	92.64602       	86.958786      	92.68624       	92.48304       	90.497025      	92.62009       	86.48692       	92.40961       	92.567375      	88.359276      	92.759995      	92.67108       	92.46548       	85.9924        	92.961624      	92.80763       	92.61223       	88.06013       	92.68138       	92.588326      	92.49976       	84.61025       	93.07414       	92.93959       	92.7735        	86.42653       	92.86636       	92.705605      	92.53978       	90.642136      	92.955605      	92.78813       	92.64469       	92.440254      	88.84236       	92.8549        	92.72764       	92.553444      	92.407684      	90.301506      	92.878006      	92.756516      	92.60431       	92.43282       	89.78219       	92.91012       	92.8478        	92.68348       	92.492065      	89.5749        	92.95829       	92.90011       	92.74678       	92.560745      	
