# www.neaspec.com
# Scan:	 	AFM
# Project:	 	20251007_PS
# Description:	 	
# Date:	 	10/07/2025 11:26:44
# Scanner Center Position (X, Y):	[µm]	49.99	50.01	 
# Rotation:	[°]	0	 	 
# Scan Area (X, Y, Z):	[µm]	5.000	5.000	0.000
# Pixel Area (X, Y, Z):	[px]	100	100	1
# Averaging:	 	1	 	 
# Integration time:	[ms]	5	 	 
# Laser Source:	 	4.5-15 µm nano-FTIR laser
# Detector:	 	R
# Target Wavelength:	[µm]	7.502	 	 
# Demodulation Mode:	 	Fourier
# Tip Frequency:	[Hz]	241,340.500	 	 
# Tip Amplitude:	[mV]	45.700	 	 
# Tapping Amplitude:	[nm]	83.227	 	 
# Modulation Frequency:	[Hz]	0.000	 	 
# Modulation Amplitude:	[mV]	0.000	 	 
# Modulation Offset:	[mV]	0.000	 	 
# Setpoint:	[%]	79.75	 	 
# Regulator (P, I, D):	 	4.206850	8.625812	1.000000
# Tip Potential:	[mV]	0.000	 	 
# M1A Scaling:	[nm/V]	0.426	 	 
# M1A Cantilever Factor:	 	1,000	 	 
# Q-Factor:	 	487.4	 	 
# Version:	 	2.1.11536.0
95.482315      	95.46436       	94.66855       	94.1257        	93.50815       	94.42815       	95.27026       	93.017715      	94.66188       	93.71156       	93.93553       	94.7256        	93.49554       	94.6779        	94.27614       	94.36378       	95.36407       	97.13497       	95.26779       	94.965256      	96.39038       	95.206         	96.09497       	94.62383       	94.173134      	95.04703       	94.73478       	95.45471       	95.463776      	94.509735      	95.01744       	94.602875      	94.23429       	93.82544       	95.33017       	95.00227       	94.06062       	94.55847       	90.428635      	91.65219       	94.56233       	93.927986      	93.22806       	92.61788       	92.79764       	94.33836       	95.20984       	92.49254       	93.81158       	94.570625      	94.57307       	92.1154        	94.38315       	93.94615       	93.714325      	95.16475       	93.909225      	94.86939       	95.398994      	94.45528       	94.81637       	94.68103       	94.34545       	93.554565      	93.590096      	93.48417       	92.64009       	94.45928       	93.19471       	93.87375       	94.38508       	94.07845       	94.879074      	94.45332       	94.36137       	94.572586      	94.58216       	94.558464      	94.39369       	95.44274       	94.24691       	94.41889       	93.64381       	94.0923        	94.6234        	93.81559       	94.364784      	94.65272       	94.40705       	94.5894        	95.03022       	95.266045      	93.97936       	94.73514       	93.05028       	95.57455       	94.05962       	94.63383       	95.84591       	94.311714      	
93.3805        	91.77522       	92.02112       	93.353355      	93.6831        	92.595085      	93.84916       	93.309364      	92.4121        	93.84115       	92.869995      	93.48074       	93.27608       	93.44261       	94.72014       	95.0945        	94.24251       	94.54926       	94.94315       	93.55952       	94.31906       	93.19201       	93.425095      	92.80428       	92.751656      	95.22893       	94.791         	94.220345      	94.59444       	93.40556       	92.694824      	92.56388       	94.27657       	91.83668       	93.953606      	94.205925      	91.81197       	92.63639       	91.44348       	93.62062       	90.370186      	91.5941        	94.458336      	94.081856      	93.68599       	91.311356      	92.77913       	94.74352       	94.15963       	92.96343       	93.06559       	93.89373       	93.79972       	93.04903       	94.87816       	94.401855      	94.72965       	95.19667       	93.028404      	93.650116      	94.436386      	93.53979       	94.383675      	94.72248       	93.60548       	94.19644       	93.15449       	94.168076      	94.02764       	94.10103       	94.19665       	94.32158       	94.99598       	94.54492       	94.87081       	95.02372       	93.29343       	94.18384       	95.01563       	93.30453       	94.4007        	92.96111       	94.1668        	93.99254       	93.65215       	94.25797       	94.680176      	93.87306       	94.48199       	93.19428       	93.356445      	93.70992       	93.98992       	92.79813       	93.603966      	93.871185      	93.741486      	95.05678       	94.38867       	93.691376      	
93.78539       	93.542366      	93.43267       	93.2082        	93.38283       	92.9962        	93.253334      	93.646034      	93.4868        	94.337326      	93.507576      	92.411705      	93.853195      	93.527824      	94.78029       	95.419716      	94.83538       	95.523735      	95.05098       	94.94798       	95.63106       	95.33395       	95.16027       	95.292656      	93.88874       	95.05866       	94.564545      	94.41753       	94.156044      	94.75453       	94.33439       	95.051605      	94.54796       	94.33536       	92.958244      	92.68261       	95.3708        	96.06648       	92.14237       	94.408455      	94.453926      	94.399376      	92.85835       	94.491135      	95.06262       	94.38867       	92.166214      	92.0496        	94.399345      	95.99104       	93.672005      	96.534134      	94.79555       	95.1414        	94.1363        	93.93814       	94.84363       	95.00532       	94.83763       	95.05897       	94.71403       	94.98633       	95.14008       	94.6374        	94.65524       	94.28952       	94.5035        	94.72749       	94.15594       	94.03268       	94.635994      	93.27771       	94.22948       	94.8073        	93.523026      	94.08317       	95.0398        	92.69634       	95.62239       	93.89741       	94.25049       	92.94903       	92.88504       	94.308235      	92.28366       	93.2172        	94.14076       	93.08373       	94.07099       	92.854256      	93.05525       	92.49216       	94.1292        	92.31633       	92.23209       	94.45865       	91.294395      	93.919174      	95.18722       	92.44815       	
94.54363       	93.41778       	92.6886        	93.146614      	94.139145      	93.94994       	92.56346       	93.657036      	94.18628       	92.40361       	93.576775      	94.66949       	93.971794      	93.94892       	95.17254       	95.24813       	95.62427       	94.730156      	94.89137       	94.294975      	94.60502       	94.023         	94.066246      	93.752396      	93.15854       	94.80218       	92.65386       	94.81673       	95.49618       	94.206955      	95.47427       	93.893265      	94.32384       	93.68664       	94.14148       	92.351555      	93.70656       	93.77154       	93.50036       	92.19734       	92.19272       	92.89549       	94.909836      	90.78289       	92.71739       	93.15588       	93.11433       	92.63105       	91.91598       	92.7696        	94.318         	92.048225      	93.75277       	94.96167       	92.84219       	94.295975      	94.087845      	93.068756      	93.784904      	93.99993       	93.289764      	93.897514      	94.59595       	93.57567       	93.245514      	94.03634       	93.27846       	93.55477       	94.3227        	93.6789        	93.93377       	94.39723       	93.90608       	94.71545       	94.82685       	93.68539       	93.98784       	93.63178       	93.264824      	95.32309       	93.4087        	93.8227        	92.28752       	93.524284      	92.74199       	93.52703       	94.12807       	92.767105      	93.60889       	91.9541        	93.94954       	92.97157       	92.49964       	93.83461       	91.476974      	93.32649       	91.20109       	91.308075      	94.02141       	91.24048       	
91.49185       	92.01519       	92.99271       	93.871994      	93.32077       	93.0441        	94.35739       	94.00671       	93.45683       	93.79198       	93.969185      	94.10103       	93.89621       	94.30931       	93.601166      	94.8993        	94.232346      	95.841515      	95.37514       	96.07653       	96.78651       	94.53254       	95.41733       	94.850464      	95.517426      	95.05029       	96.058914      	94.45858       	95.754654      	94.393875      	94.32758       	93.869644      	93.01583       	95.43009       	91.40381       	94.67457       	95.04256       	91.86035       	93.5907        	92.56269       	93.36348       	94.895546      	92.18277       	94.147064      	93.734665      	93.46451       	93.172165      	93.85688       	94.75795       	94.30997       	94.44264       	94.53252       	95.985306      	95.3262        	95.124565      	94.57601       	93.04274       	95.46797       	94.00557       	93.929245      	95.91928       	94.6559        	93.76226       	95.2626        	94.75985       	94.34371       	94.26795       	94.951324      	94.619415      	93.622055      	94.97983       	93.90796       	94.8792        	94.10961       	92.99051       	95.30933       	93.8929        	93.866295      	94.39809       	94.262115      	94.44496       	94.184784      	94.25642       	93.68361       	93.934746      	93.37436       	93.87363       	93.445076      	92.06837       	94.42407       	91.45023       	91.35357       	92.407845      	91.13337       	93.4603        	94.16536       	92.03068       	94.174545      	92.19782       	94.09698       	
91.12252       	93.715485      	93.890884      	92.29215       	90.541046      	91.8177        	93.81966       	92.07982       	91.23155       	93.485016      	93.29935       	92.80291       	93.47517       	93.26538       	93.21315       	93.24985       	93.26702       	94.26568       	94.07899       	93.310165      	94.704025      	93.125786      	96.32443       	93.902534      	94.692276      	96.16878       	93.362076      	93.4158        	92.73641       	95.30788       	91.71868       	93.74913       	95.37948       	92.60886       	94.759384      	94.31039       	92.878586      	93.2812        	93.191315      	93.90114       	92.41774       	94.3264        	93.375084      	93.183395      	92.5249        	93.26645       	95.376595      	91.68542       	94.86176       	95.12957       	93.429985      	95.6403        	94.48441       	95.26229       	94.71349       	93.83324       	94.97645       	93.19256       	93.62793       	93.43887       	93.76661       	93.887825      	93.31511       	94.176506      	95.43001       	93.923615      	94.372604      	95.65599       	94.01705       	93.50961       	95.34172       	94.380775      	93.29042       	96.40199       	94.846634      	93.404594      	95.02449       	95.202995      	92.66621       	93.77785       	94.82976       	93.440186      	93.412155      	93.54845       	92.84528       	93.93258       	93.581055      	93.36652       	93.06965       	93.24625       	93.0748        	93.792534      	93.34935       	92.389145      	93.34542       	92.718094      	92.84063       	92.72121       	93.21115       	92.53974       	
93.0136        	91.740486      	92.235016      	93.86905       	94.771675      	93.152016      	92.39079       	94.87315       	94.14924       	91.97269       	94.01892       	94.65853       	93.45938       	93.516914      	94.5853        	94.47408       	94.43812       	94.93323       	95.12511       	94.720894      	94.27864       	94.86037       	95.12179       	95.01403       	94.78433       	95.476654      	94.53311       	94.097084      	95.0086        	93.93803       	94.98214       	93.2677        	95.00867       	92.394905      	94.00577       	95.456535      	94.62711       	93.62232       	94.11518       	94.30046       	93.6676        	93.98021       	94.65722       	94.20927       	94.01509       	93.49844       	95.75414       	92.53075       	93.91661       	96.288994      	92.82857       	95.136314      	96.10518       	93.50823       	95.81168       	92.98985       	94.16455       	95.64384       	92.361404      	93.042046      	95.71986       	92.39185       	94.39506       	96.6654        	92.70658       	94.48514       	96.4603        	92.30371       	93.67452       	97.45667       	91.982925      	94.913925      	96.398026      	92.102104      	93.91459       	95.34549       	92.83707       	93.45288       	95.393234      	94.37824       	93.706924      	95.02555       	94.99411       	94.15463       	94.41564       	93.91793       	93.04464       	93.92819       	92.60902       	92.59411       	93.36945       	92.44226       	92.66456       	92.73744       	91.86706       	92.68321       	93.89469       	91.83116       	94.34354       	93.791954      	
91.36251       	92.83049       	93.46754       	93.73046       	92.84687       	92.43498       	93.89609       	94.67931       	91.83296       	93.950554      	95.13683       	93.65507       	93.1467        	94.298225      	94.72829       	94.24271       	94.40951       	95.458336      	94.705315      	94.25464       	95.14429       	95.80916       	94.163376      	94.51515       	95.9762        	93.51651       	94.85942       	96.6864        	94.798965      	97.50371       	95.63199       	97.78649       	94.59903       	92.31813       	93.998344      	92.812614      	96.21294       	93.06465       	94.75244       	96.71152       	92.37727       	96.44939       	95.861946      	94.81172       	95.2601        	93.61772       	97.037964      	94.45074       	94.10231       	95.27783       	94.57641       	94.848526      	94.167984      	94.17562       	93.21894       	94.65972       	94.804695      	93.38802       	95.386925      	93.20152       	94.63041       	94.345695      	92.66432       	96.272         	94.17268       	93.68688       	96.255844      	95.64319       	94.59728       	95.8962        	94.10002       	94.53763       	95.6644        	93.29151       	93.79528       	94.79784       	94.34335       	94.08122       	94.34456       	94.74372       	93.63427       	94.087326      	94.87355       	95.45082       	94.642105      	94.54321       	95.56674       	93.379875      	95.37701       	95.765854      	93.6524        	95.45021       	91.86816       	94.827286      	94.96182       	91.99291       	95.0749        	90.305336      	94.60147       	92.73231       	
93.273         	94.51111       	94.80188       	93.80807       	92.77353       	94.434845      	94.434654      	92.59375       	94.477295      	95.15775       	92.259315      	93.92097       	95.53898       	93.284134      	93.60083       	95.2712        	93.55529       	92.551285      	94.893524      	94.850655      	93.051445      	94.01071       	94.91154       	93.87299       	94.11058       	94.57368       	94.227005      	92.32185       	95.15954       	95.02312       	96.318115      	94.70349       	95.1184        	95.259415      	93.045074      	95.07604       	93.18193       	94.462105      	96.05684       	92.71973       	94.766235      	95.16684       	93.21534       	94.30749       	94.44519       	93.61272       	95.04371       	93.265884      	94.15901       	94.57609       	93.28246       	93.903984      	92.95524       	93.77922       	93.47099       	92.98903       	92.491745      	93.26706       	92.946686      	92.81388       	94.53113       	92.489655      	92.92766       	92.29208       	91.90816       	93.15292       	92.03414       	93.05708       	94.28616       	91.61292       	94.72274       	93.41305       	91.62975       	94.65116       	93.03333       	92.38891       	95.618164      	92.40042       	92.847084      	95.84755       	91.37232       	93.95749       	94.81174       	91.80518       	92.35636       	94.28585       	92.266235      	92.17061       	94.5105        	92.31458       	92.85519       	93.11652       	93.18893       	92.1092        	92.396576      	92.71073       	92.01805       	93.11301       	92.80356       	91.06046       	
91.86002       	93.2975        	93.11236       	92.11305       	92.20987       	93.96211       	93.86061       	92.46413       	94.21496       	94.22269       	91.8107        	94.15028       	94.32201       	91.46465       	93.64807       	95.53148       	92.21322       	93.256485      	96.23567       	93.024         	92.94979       	96.46777       	94.35827       	92.97262       	95.67989       	95.994316      	94.101456      	95.87345       	92.97388       	94.4775        	95.387245      	93.698074      	93.980156      	96.123215      	93.881996      	96.01771       	92.468956      	94.12118       	95.20476       	93.107574      	95.0723        	93.99459       	94.079666      	94.69676       	94.19507       	93.93411       	94.84443       	93.78632       	93.27424       	95.08256       	92.76092       	94.53216       	95.03443       	93.02926       	94.640755      	94.05855       	92.92952       	95.22548       	94.25023       	93.187744      	94.6306        	92.278694      	94.84627       	94.2061        	92.00312       	96.22198       	91.70889       	93.9023        	96.14164       	91.804695      	93.627426      	96.36209       	93.312164      	92.53239       	95.241714      	93.33153       	92.162895      	94.2518        	94.08885       	92.380005      	93.95351       	94.48199       	93.63496       	93.53955       	94.43586       	92.78842       	93.206024      	94.496086      	93.76551       	92.20175       	94.03707       	93.45715       	93.36659       	93.60878       	93.60859       	93.2859        	92.65335       	93.49577       	92.81109       	91.43886       	
94.93962       	94.03451       	92.54416       	92.216866      	93.98469       	96.32738       	94.60859       	92.5516        	95.2708        	94.89331       	94.12882       	95.38669       	94.5754        	94.1394        	95.09626       	94.17615       	93.7764        	96.45048       	93.4523        	93.37915       	96.23894       	93.28694       	93.21106       	95.7956        	94.01955       	93.04659       	97.32197       	94.71131       	93.00778       	96.736855      	95.53273       	91.828354      	97.041435      	93.10436       	95.64913       	92.66762       	93.42233       	94.091995      	92.237114      	97.80512       	97.79857       	97.2251        	97.58557       	93.722786      	96.664154      	94.14251       	94.095665      	95.70838       	93.31965       	96.426796      	95.2639        	95.255325      	94.5922        	94.072105      	94.372505      	94.27182       	93.90559       	93.12839       	94.85165       	93.37643       	94.32638       	93.92805       	94.366325      	95.220856      	92.4104        	96.10253       	93.12548       	96.29385       	94.485405      	92.69998       	95.280205      	95.97868       	93.14665       	94.9449        	95.64631       	94.0972        	94.79072       	96.07142       	94.49703       	94.66019       	95.224594      	95.347305      	96.34272       	94.24336       	94.93541       	95.33688       	93.868614      	93.079185      	95.07161       	93.71062       	94.08072       	94.51524       	91.563354      	94.63794       	95.04587       	92.05411       	93.36173       	95.05911       	92.2336        	93.024506      	
93.68684       	92.20417       	92.209946      	92.99489       	94.01233       	93.59572       	91.61219       	93.204475      	94.68997       	92.830734      	92.82507       	93.793564      	93.2034        	92.43126       	93.54691       	95.29256       	93.07469       	93.80865       	95.23668       	94.194786      	93.94103       	94.9711        	95.25298       	93.89888       	95.12377       	95.62048       	94.17383       	95.30444       	97.10744       	94.06406       	95.53425       	95.11995       	94.503456      	96.47487       	94.08232       	96.01848       	94.52972       	95.19742       	95.367584      	93.33447       	95.91827       	94.23153       	94.29768       	97.06413       	95.19494       	93.66106       	95.80575       	93.159836      	95.732056      	95.57711       	95.98487       	95.830185      	94.80067       	94.76594       	94.226555      	93.93945       	93.44307       	94.6521        	92.73958       	93.14469       	92.791794      	93.24784       	93.86553       	91.58533       	93.78853       	90.93322       	93.49742       	92.140884      	91.68533       	96.84307       	90.652435      	94.870964      	95.33294       	91.35118       	93.81083       	95.02678       	92.371956      	92.81637       	94.926254      	91.76468       	93.62239       	93.114876      	92.70968       	93.066284      	92.11684       	91.90906       	93.239296      	92.25805       	92.42049       	93.73763       	91.43239       	93.74281       	92.25092       	91.229965      	95.05908       	92.48088       	91.73195       	94.610054      	92.46553       	90.41077       	
92.821625      	92.209175      	92.31801       	92.583954      	93.08473       	92.78871       	93.678024      	94.5046        	92.32282       	93.73766       	94.61626       	92.33094       	93.32988       	95.82415       	93.47963       	93.05313       	95.58367       	94.627106      	92.84197       	95.6786        	94.3434        	91.90732       	95.72941       	94.472984      	92.340775      	95.10261       	95.6432        	92.87768       	94.72631       	96.404625      	92.97175       	96.733894      	94.76226       	94.40822       	94.7397        	93.91124       	93.83207       	94.21834       	93.41724       	94.27043       	93.47981       	93.5643        	95.3464        	94.7361        	93.52857       	94.803116      	95.300575      	94.50065       	95.59545       	94.68624       	94.58979       	94.58378       	94.07643       	94.77136       	93.542076      	93.47241       	93.93258       	93.15547       	93.8099        	94.98985       	92.13653       	93.156654      	94.45801       	93.87288       	94.91903       	93.11767       	95.24908       	95.422714      	94.79115       	95.938614      	93.29518       	96.31522       	93.26566       	93.93106       	95.64372       	94.11124       	94.51579       	94.77186       	93.442986      	95.02729       	94.65762       	93.44482       	93.25741       	94.211075      	93.05745       	93.219124      	94.34444       	93.223595      	92.5575        	94.66581       	92.233894      	92.850945      	93.745346      	91.26728       	91.74695       	93.97493       	92.13437       	92.693375      	93.666306      	92.53068       	
93.426285      	92.26704       	92.65274       	93.81578       	94.03577       	93.15694       	93.757515      	94.5865        	93.19597       	93.46115       	94.6587        	94.3559        	92.71217       	94.150764      	95.12573       	92.50667       	94.32817       	95.8197        	94.271484      	93.200516      	95.762245      	94.31319       	93.14393       	95.08379       	95.62694       	93.06534       	94.08484       	95.32752       	92.96292       	96.07785       	93.09852       	96.97494       	94.67717       	96.10648       	95.77794       	95.10563       	95.59909       	94.755455      	95.08786       	95.80119       	94.39588       	94.66202       	95.838394      	94.145134      	94.317535      	96.0839        	93.57569       	95.088554      	92.925186      	94.28682       	96.40307       	93.44366       	95.92372       	96.42155       	94.239944      	95.417564      	93.454575      	94.987465      	92.27644       	92.713264      	95.77386       	91.641304      	94.50013       	96.391205      	92.577644      	95.230865      	91.6845        	93.71915       	93.35715       	93.04555       	93.466545      	94.05116       	92.64981       	94.54139       	94.87923       	92.85505       	94.32169       	94.328575      	92.896805      	93.77271       	94.19897       	92.11217       	94.04756       	94.35808       	91.626595      	93.359665      	93.51517       	92.884514      	92.91854       	93.64022       	93.89549       	93.21634       	92.806404      	92.98692       	92.82917       	92.14913       	93.51586       	93.25188       	92.51613       	93.67892       	
91.38646       	92.763275      	92.86785       	91.58719       	91.23877       	93.03871       	93.74438       	92.016525      	91.75778       	92.98251       	92.46269       	91.65469       	93.1942        	93.67862       	92.33017       	92.99052       	94.35654       	92.351456      	92.17616       	93.46566       	93.01234       	92.3664        	93.68532       	94.98858       	93.02768       	93.79888       	94.82442       	93.74696       	95.25663       	95.33044       	94.28387       	95.82706       	93.76297       	95.4413        	95.1551        	94.0841        	94.91298       	94.31812       	94.754425      	94.374115      	93.880745      	94.71244       	93.77968       	94.771614      	93.781166      	92.995346      	95.16159       	92.579926      	93.930435      	95.2432        	93.188095      	95.23516       	95.57811       	94.06773       	95.76346       	93.74345       	95.62592       	96.07388       	94.25943       	95.7968        	95.724655      	94.693306      	94.4685        	94.99838       	94.28759       	95.14269       	93.56113       	95.090744      	94.52535       	93.41015       	94.9357        	95.02396       	92.806694      	95.018715      	95.15544       	92.87951       	93.89147       	95.16317       	94.23131       	93.55732       	95.14106       	93.39417       	93.03743       	94.08508       	93.54887       	93.65597       	92.836296      	93.57099       	93.32225       	93.35327       	94.20844       	92.010506      	94.19825       	94.39228       	92.287224      	93.68718       	92.26391       	91.75861       	94.44487       	92.60744       	
91.740776      	93.526924      	93.64299       	92.95056       	92.02562       	93.199554      	95.017944      	92.610855      	92.25058       	94.13313       	93.49431       	90.61527       	94.211075      	94.007675      	91.55201       	93.540375      	94.76519       	92.610306      	92.56766       	95.37243       	92.697464      	93.698944      	95.36407       	93.18397       	92.92679       	94.664154      	92.8988        	92.37926       	94.10074       	93.83837       	94.28704       	94.05468       	93.97542       	94.242195      	92.824265      	94.537315      	93.03889       	95.88832       	94.19781       	96.08447       	95.327095      	93.595215      	95.67631       	94.75435       	94.767006      	93.52831       	94.45555       	94.56691       	93.38616       	94.586075      	92.72706       	94.92928       	95.69519       	93.48892       	95.60055       	94.47511       	95.5196        	95.20604       	94.51566       	96.53991       	93.699615      	95.637566      	94.54648       	92.914604      	95.38219       	93.44988       	94.85395       	94.89384       	94.11235       	94.968094      	94.42268       	93.93803       	94.78385       	94.64401       	93.238945      	94.6397        	94.35413       	93.83546       	95.32458       	93.13341       	92.91613       	94.432465      	93.20744       	93.27259       	93.88509       	91.35981       	92.28871       	93.26323       	91.7686        	94.05372       	92.11385       	92.828865      	94.41329       	92.906624      	93.41442       	93.56347       	93.35341       	92.93381       	93.59713       	93.413315      	
91.97026       	93.15141       	92.39373       	91.09679       	91.859726      	94.44367       	93.96179       	92.10635       	93.25935       	94.59876       	92.3908        	93.27457       	94.54333       	93.4264        	93.24976       	94.111465      	93.895195      	94.09461       	93.94665       	94.44925       	94.82211       	94.12333       	93.70011       	95.736465      	92.87233       	93.49511       	96.31432       	94.03394       	94.30416       	97.90747       	92.86253       	94.31071       	97.196304      	92.7328        	96.702705      	93.827965      	96.45877       	97.71242       	94.754555      	97.29898       	93.33466       	96.80629       	96.557465      	95.14517       	96.63154       	95.29996       	94.932846      	95.09844       	94.579575      	93.84557       	95.27885       	95.50297       	94.01012       	94.485664      	94.50548       	94.46903       	94.83001       	94.10304       	94.98837       	93.36873       	94.94539       	95.385605      	93.47062       	95.20676       	94.19705       	94.12823       	94.53676       	93.18355       	93.67906       	93.84977       	92.58305       	93.288345      	93.6611        	93.341324      	93.68771       	94.8403        	93.42521       	93.918365      	94.727165      	93.94133       	94.31513       	94.57174       	93.4086        	95.22313       	93.00924       	94.51618       	93.80216       	93.95389       	94.667656      	91.91699       	93.81022       	93.36669       	92.153         	95.212555      	93.300095      	92.11698       	94.94662       	93.40626       	91.77963       	94.6377        	
92.42204       	93.66094       	94.296005      	93.58069       	92.559746      	93.532265      	94.68263       	93.22236       	92.90959       	95.456474      	95.050995      	93.09422       	95.537445      	95.46912       	93.28344       	94.46122       	95.950615      	93.777275      	94.55436       	95.93172       	94.28765       	94.33894       	95.044586      	94.390366      	93.64253       	94.56177       	95.8034        	94.13423       	94.65793       	95.29436       	95.02992       	93.60928       	94.01177       	95.23726       	93.73633       	95.03796       	95.22077       	95.726494      	96.810425      	95.02597       	96.22051       	95.65416       	94.776726      	95.66334       	94.799644      	95.83355       	95.44827       	93.98718       	94.58835       	94.348335      	94.245224      	93.93095       	94.214966      	93.95782       	94.31359       	93.90605       	94.138374      	94.76303       	93.33434       	95.16639       	94.51669       	93.503105      	95.65937       	93.38099       	94.66036       	94.02096       	92.19557       	95.25965       	93.083         	94.3901        	94.245766      	92.239136      	93.923225      	94.43889       	92.948906      	94.29223       	93.96734       	92.928154      	94.01533       	93.697014      	92.18649       	92.94316       	92.725395      	93.655136      	93.17046       	92.94679       	92.72982       	93.502945      	92.0981        	92.98527       	92.13497       	91.85115       	92.25416       	93.0985        	92.20442       	92.94028       	92.743805      	91.90962       	92.73953       	92.34352       	
94.3274        	93.13811       	92.36529       	92.81866       	93.94593       	93.51847       	93.84724       	93.4155        	93.44548       	93.613075      	94.73785       	93.84915       	93.39174       	94.46156       	94.5226        	93.45562       	94.120415      	95.12167       	94.030716      	94.79088       	95.55881       	94.32787       	94.03263       	94.71252       	95.295135      	93.84222       	95.12614       	94.826675      	93.94914       	95.350945      	94.92916       	94.3105        	95.48139       	95.91247       	94.42229       	95.26138       	95.43997       	94.604355      	95.606125      	94.160446      	94.49757       	94.26503       	95.6046        	93.68424       	95.24123       	95.2607        	93.08299       	95.58395       	93.143585      	93.984955      	93.994026      	92.55823       	95.28429       	93.756836      	94.38571       	94.65526       	94.99179       	94.82308       	95.26379       	93.11063       	94.20552       	94.790474      	93.80029       	95.39654       	92.490685      	93.99544       	94.92827       	93.18269       	95.05664       	93.25162       	93.38668       	95.0048        	93.011604      	94.29589       	94.28772       	93.033005      	93.968834      	95.13758       	92.474556      	92.20133       	93.37798       	91.34108       	93.88395       	91.609505      	94.38454       	93.17264       	91.53913       	93.81055       	93.1868        	94.29416       	93.86009       	92.56939       	94.4489        	93.710075      	92.46086       	93.22578       	93.97323       	92.51431       	93.74093       	93.00092       	
93.42439       	90.75509       	90.6046        	92.74571       	94.619         	93.15388       	92.83406       	94.10521       	92.76257       	94.59856       	93.52536       	92.86129       	95.16401       	93.01203       	93.22979       	95.6173        	94.28465       	93.743866      	95.90502       	94.9141        	93.164665      	94.52127       	94.96431       	93.43578       	95.14043       	93.53048       	94.12423       	94.20323       	93.549614      	93.60723       	94.22969       	93.3778        	93.90812       	93.82018       	94.65062       	94.185715      	95.675705      	94.22978       	96.07997       	95.081345      	93.536285      	95.40006       	93.51798       	93.29162       	94.83808       	92.81452       	95.568474      	93.24086       	93.61744       	93.55724       	93.62928       	94.20838       	94.0295        	93.788734      	93.89698       	93.74273       	93.67394       	93.67871       	93.24112       	93.4757        	93.69154       	93.54663       	93.45598       	93.51794       	93.031654      	93.51106       	92.87602       	93.01519       	94.64571       	92.91321       	93.876656      	94.235275      	93.13536       	94.15677       	94.15349       	93.18224       	94.07189       	93.69831       	94.19252       	94.85539       	93.69493       	93.27324       	93.25423       	92.41207       	94.00509       	93.99988       	93.26889       	94.04036       	92.1727        	93.70161       	93.51863       	92.26966       	93.81756       	92.48043       	93.46894       	93.58249       	92.36002       	94.23939       	93.509575      	91.74395       	
92.840614      	91.35857       	92.17821       	93.68043       	95.01661       	91.84428       	94.13628       	94.84157       	92.32266       	94.30753       	93.77603       	94.1327        	94.58866       	93.96337       	94.98654       	95.40596       	94.472725      	96.21517       	95.7882        	94.66298       	95.209724      	96.58644       	94.87329       	94.143906      	95.754135      	94.403275      	95.6306        	94.99911       	95.67375       	94.89389       	94.643974      	95.02725       	94.97254       	94.265625      	95.334946      	95.21392       	94.1194        	96.005325      	94.1676        	96.051476      	94.06512       	93.40251       	94.55901       	93.44022       	94.82565       	93.738         	93.05793       	93.11998       	94.98421       	94.130615      	93.77699       	94.15927       	93.50829       	95.078         	93.5654        	92.48994       	95.46813       	93.66622       	95.21977       	94.29126       	92.5345        	94.57181       	92.4367        	92.08952       	93.3922        	91.85548       	94.322334      	93.34352       	92.7675        	93.85054       	93.753716      	92.88254       	93.22901       	93.98453       	92.38604       	92.76012       	93.6897        	92.26027       	94.27315       	93.0508        	93.00712       	92.96886       	92.31363       	92.70114       	93.34549       	93.01392       	94.118805      	93.81465       	93.40671       	93.56689       	93.5741        	92.652664      	93.40186       	93.12823       	93.67689       	93.52775       	93.45039       	92.157684      	93.51221       	91.796684      	
92.82388       	92.25138       	92.36937       	93.19072       	94.64993       	94.10115       	92.78598       	93.98906       	93.208084      	92.764946      	93.06853       	93.09582       	92.349815      	93.47078       	93.96904       	93.74878       	93.76463       	94.90332       	94.352646      	93.440056      	94.48705       	95.200966      	93.44987       	95.711136      	93.73238       	93.8779        	94.74442       	94.4228        	93.4957        	94.07015       	93.60177       	93.26203       	93.754776      	93.69201       	94.49763       	94.53399       	95.38128       	94.418         	96.31961       	93.79583       	93.91535       	95.00191       	93.44459       	94.49695       	94.16493       	93.4627        	93.824776      	93.755875      	94.29931       	93.68434       	94.371346      	94.16933       	93.979805      	94.00462       	93.06751       	95.1361        	92.11374       	95.07764       	93.66346       	92.412445      	93.929436      	92.142815      	94.50384       	92.86805       	92.659164      	92.97709       	93.48443       	93.976654      	92.15534       	94.33927       	93.54544       	92.800446      	94.19411       	93.9524        	92.851654      	93.51268       	94.22286       	93.33837       	93.738846      	93.29073       	93.37439       	92.482475      	91.81432       	92.361534      	93.90325       	91.94103       	93.351616      	93.22067       	92.83853       	93.38411       	93.90551       	92.68554       	93.01215       	93.08587       	92.44076       	93.3862        	92.47621       	92.76517       	93.100494      	91.85638       	
93.47698       	92.81795       	93.31271       	94.03732       	94.38302       	93.092125      	94.05868       	94.14339       	93.711044      	95.91884       	92.86898       	94.64961       	94.018715      	92.43624       	95.665085      	94.402084      	92.998085      	95.22043       	95.61065       	93.212685      	94.82906       	95.70582       	93.216064      	93.77308       	94.946815      	93.43639       	94.66919       	93.698296      	94.096245      	93.78986       	93.87955       	93.95159       	93.07015       	93.87971       	94.64259       	94.04977       	94.0704        	95.924065      	94.867584      	95.033646      	95.4705        	93.77294       	94.83471       	94.66288       	93.73345       	94.86543       	93.35075       	92.806435      	93.582405      	93.09384       	93.38616       	93.80003       	93.742584      	94.25492       	94.29317       	93.95642       	94.04501       	94.7924        	93.97057       	94.71831       	94.28353       	94.00631       	95.01254       	95.16869       	94.15724       	94.57926       	94.32403       	93.37614       	93.785194      	93.818184      	94.106606      	93.6971        	93.45613       	93.70027       	93.1656        	92.09529       	94.18096       	93.018585      	94.4461        	94.058         	91.431465      	92.73089       	92.78958       	93.36789       	92.47364       	93.00178       	92.785675      	91.91686       	91.45824       	92.08819       	92.39723       	91.17265       	93.54224       	91.7976        	93.12857       	94.62193       	92.25277       	93.66402       	93.44214       	93.43434       	
94.62486       	94.95651       	94.878716      	94.46012       	93.87717       	94.08485       	94.77136       	94.38569       	95.08289       	94.74834       	93.93956       	94.16063       	95.19406       	94.60555       	93.44877       	94.525116      	95.587715      	93.4897        	94.53613       	95.70247       	94.458855      	94.17423       	95.83704       	95.227974      	94.921265      	96.05428       	95.73511       	95.99588       	94.9043        	95.60875       	95.4341        	94.40058       	94.5831        	95.33361       	94.84866       	94.497574      	95.3134        	96.09877       	94.06721       	95.555984      	95.836586      	94.18958       	95.73589       	96.02646       	95.47501       	96.52282       	93.88085       	94.9677        	94.59743       	94.19123       	94.50308       	94.7417        	93.22774       	94.33813       	94.95521       	94.200195      	95.237885      	95.23002       	93.796005      	94.5885        	94.4263        	94.27978       	93.99327       	94.360146      	93.71606       	93.93011       	94.29903       	94.46575       	94.31204       	94.68993       	95.436714      	93.49354       	93.485565      	93.90609       	94.268326      	93.2091        	94.62081       	93.52038       	93.97706       	93.95821       	93.397575      	93.65075       	94.0667        	92.73199       	94.27785       	94.652695      	92.95724       	94.44317       	92.39771       	92.04949       	91.57293       	91.802475      	95.38929       	91.0655        	93.57808       	94.02825       	93.01582       	93.454605      	92.65693       	93.438705      	
94.6466        	93.65992       	93.22031       	93.722664      	94.6226        	93.93205       	92.45052       	93.77115       	93.2928        	94.0972        	93.50164       	94.27615       	93.89772       	93.34211       	93.980995      	94.10411       	92.810455      	93.85075       	95.470146      	94.12134       	94.19317       	94.285416      	94.38818       	94.96856       	94.18305       	94.264046      	94.23173       	93.07788       	93.50264       	94.69013       	92.672035      	93.712265      	95.06544       	93.04561       	93.38704       	95.52351       	93.497025      	93.68372       	95.85646       	92.73781       	95.517204      	94.18424       	94.86522       	93.55809       	93.89868       	94.71772       	94.40428       	93.90329       	94.4985        	94.27956       	93.59791       	94.658844      	94.17749       	93.889046      	94.84596       	93.07263       	94.45904       	94.11019       	92.891205      	93.24745       	92.7893        	93.175125      	93.85942       	92.429474      	93.6563        	94.472244      	92.288246      	94.284195      	93.19092       	93.094635      	94.252815      	92.81897       	93.48903       	93.792145      	92.86358       	92.573166      	93.818344      	92.12565       	91.77254       	93.1421        	92.11799       	92.11002       	91.12549       	91.65224       	92.86          	93.204926      	92.346275      	92.991104      	92.07549       	92.051056      	92.69527       	92.77388       	93.03642       	92.153076      	92.536415      	92.8286        	92.542656      	92.173996      	91.57834       	92.95074       	
92.12746       	92.6759        	93.04086       	92.337         	92.69972       	93.50552       	92.31513       	93.506256      	93.627304      	92.87501       	94.919         	93.68049       	93.14523       	94.55754       	94.59205       	93.38962       	93.78483       	94.623985      	93.60783       	94.2993        	93.89546       	94.0664        	93.68714       	93.5349        	94.56634       	94.52205       	93.454834      	94.170204      	93.78533       	92.44645       	93.29567       	94.14748       	93.7242        	93.587265      	94.36792       	94.40779       	94.468216      	94.13623       	94.21815       	94.547455      	93.79655       	94.57928       	94.23268       	94.37731       	94.78474       	95.47869       	94.72991       	95.419716      	95.1792        	94.170395      	95.36079       	94.221664      	95.14168       	94.8283        	93.577156      	94.38911       	93.438896      	93.67672       	94.36675       	94.23675       	93.04991       	94.19881       	93.41269       	93.49334       	94.45009       	94.066895      	95.39067       	94.18243       	94.490685      	94.39531       	93.92665       	93.790924      	94.10307       	93.95049       	94.04465       	93.37401       	93.827286      	93.095795      	93.26844       	92.73357       	93.041794      	93.05134       	92.99273       	93.54699       	93.86552       	92.39522       	93.87169       	93.55806       	92.01985       	92.83922       	93.41489       	92.70923       	93.02197       	92.36947       	92.63337       	92.55482       	92.66398       	93.36299       	92.56759       	93.176926      	
94.03195       	94.35971       	93.5739        	92.180084      	92.72838       	93.94585       	93.53587       	93.82023       	94.75656       	93.907555      	94.12166       	93.484825      	93.52492       	92.853645      	93.75693       	94.55606       	93.39497       	93.72845       	94.67565       	93.467415      	94.00867       	94.3599        	93.785416      	94.34593       	94.74433       	94.2399        	94.22067       	94.776764      	93.703995      	93.91528       	94.54567       	93.858475      	93.55798       	94.80379       	94.56026       	94.94645       	94.25777       	94.63851       	94.064156      	93.815094      	94.9725        	94.137375      	94.889145      	94.64372       	93.20163       	93.40067       	94.95387       	93.44629       	94.50207       	94.80116       	94.85954       	94.32081       	95.22901       	93.509995      	94.38901       	93.14961       	93.28536       	93.403305      	92.21275       	93.285645      	92.70451       	92.792366      	93.80281       	92.75123       	93.09028       	94.16126       	93.06998       	93.862686      	93.219574      	92.5455        	92.82141       	94.215385      	93.14914       	93.675125      	93.35442       	92.924446      	92.96774       	91.29579       	93.00907       	93.267914      	92.30374       	94.995964      	92.54738       	94.532036      	93.31426       	91.07178       	92.72851       	90.579025      	93.07421       	94.2918        	91.449326      	93.34129       	91.862686      	91.310905      	91.51388       	91.67349       	92.62322       	91.37908       	92.76961       	92.446785      	
93.53829       	93.27157       	92.96394       	93.16778       	94.56053       	93.74295       	95.6047        	93.94527       	95.445175      	94.63604       	94.87805       	94.99373       	93.239624      	92.451065      	94.7742        	93.60765       	92.55893       	93.7605        	93.726616      	92.661896      	93.50844       	93.95714       	93.02389       	93.79451       	93.96144       	92.99646       	94.0628        	93.9622        	94.16741       	94.56652       	93.004684      	93.38841       	95.16301       	92.771866      	95.15472       	93.10882       	93.8169        	95.12541       	94.54772       	92.70926       	95.190636      	94.24032       	92.93568       	94.25567       	94.4238        	93.41232       	93.144905      	93.974724      	93.12044       	94.51411       	94.04135       	94.4465        	93.58365       	94.26355       	93.143105      	94.20959       	92.99589       	92.39625       	93.85118       	92.23969       	93.62224       	93.609085      	92.63813       	93.108574      	93.5993        	93.33662       	93.96244       	93.80763       	93.15656       	93.89992       	92.82816       	92.96298       	94.56213       	92.81355       	94.45605       	92.94963       	94.7718        	93.81929       	92.33658       	93.52554       	92.357544      	92.21163       	91.95533       	92.79404       	93.273544      	93.04797       	94.30557       	92.790436      	93.23181       	91.4726        	92.683876      	94.37312       	91.301445      	93.477104      	92.83977       	91.72241       	91.93442       	92.67818       	92.430046      	93.05029       	
93.05427       	93.96899       	93.75622       	93.50668       	95.21366       	95.15157       	93.96769       	94.56087       	94.621635      	93.278824      	95.51384       	94.70983       	93.53877       	94.5174        	95.017815      	93.470375      	94.33244       	95.35278       	94.0279        	93.29947       	95.149864      	95.49703       	94.6364        	94.81377       	95.61303       	94.54906       	94.757256      	95.771286      	95.37363       	95.510124      	94.764755      	94.8665        	95.61624       	94.54466       	96.85501       	95.47078       	97.61921       	96.979744      	96.54632       	96.77896       	94.204956      	96.08751       	94.65946       	94.85157       	95.8581        	94.39985       	95.0545        	95.26816       	95.7004        	94.45654       	96.45548       	95.46786       	93.86406       	95.336136      	94.30628       	94.14859       	95.078964      	94.56308       	94.74426       	94.62731       	95.71481       	93.89954       	95.17652       	95.21223       	93.809494      	95.46644       	93.54249       	96.016         	94.825035      	94.54703       	94.80964       	93.780975      	93.97621       	93.2354        	92.74354       	94.45692       	93.4061        	94.527145      	93.67919       	92.402084      	93.29496       	93.55992       	92.852615      	92.43887       	92.65109       	92.16399       	91.39579       	91.308105      	91.4187        	92.13443       	90.20891       	92.485115      	92.91737       	92.195694      	91.96794       	91.91889       	91.44556       	91.48549       	91.550644      	91.36628       	
93.039986      	94.0276        	93.86748       	92.66964       	92.917         	95.16712       	93.16845       	93.03191       	94.521515      	93.78743       	92.87455       	94.68332       	94.815025      	93.21626       	94.03702       	94.58715       	94.00363       	94.36285       	94.13325       	94.30205       	94.17223       	94.40756       	95.12608       	94.2794        	93.979195      	94.583725      	95.27473       	94.37641       	94.0815        	95.94295       	94.91554       	95.14823       	95.93364       	93.849335      	95.65533       	95.08106       	95.52019       	96.19665       	95.95727       	95.455025      	95.30325       	95.20143       	94.785995      	95.6298        	93.50953       	94.992134      	93.97297       	94.21363       	95.23851       	93.92692       	95.178154      	94.52988       	93.87005       	94.19054       	93.94876       	94.65064       	94.68071       	93.39665       	94.44876       	94.244995      	93.8061        	94.892746      	94.98785       	94.15822       	94.61626       	95.59329       	94.99832       	94.093735      	95.71916       	94.05618       	94.63715       	94.6137        	93.70106       	94.4939        	93.92137       	93.380936      	94.32323       	93.78634       	93.912224      	93.714676      	93.41301       	93.43873       	93.14161       	93.5673        	92.3972        	92.8213        	93.991776      	93.53448       	93.708824      	93.89807       	93.039024      	93.6916        	93.17952       	92.67802       	94.072464      	92.17114       	93.35307       	94.539024      	92.06569       	93.17711       	
93.79503       	94.66961       	94.01511       	92.90536       	94.38156       	94.73299       	93.92647       	94.323235      	94.48316       	94.38041       	94.02856       	94.43797       	94.26684       	93.859505      	94.44779       	94.79981       	94.31876       	94.36803       	94.67545       	94.354774      	93.30891       	94.11641       	95.19418       	94.60075       	93.51749       	95.01917       	94.55421       	94.339645      	94.067696      	94.04646       	94.53446       	94.79651       	94.44898       	94.334724      	96.04973       	96.250015      	95.00402       	94.87133       	94.804825      	95.13361       	94.344765      	94.539795      	93.62796       	95.035576      	94.63501       	93.66965       	95.49604       	92.864624      	95.37035       	94.57523       	94.12756       	96.24177       	92.276375      	96.17946       	93.59359       	92.63386       	95.37044       	91.9104        	96.37733       	93.931         	92.732956      	94.94462       	92.9876        	94.67531       	93.57785       	94.59793       	93.45694       	95.72319       	93.91159       	93.81986       	94.21178       	92.70588       	95.81034       	91.25996       	95.08927       	92.44627       	94.35301       	94.44345       	92.92452       	93.20306       	92.89483       	94.07809       	92.47276       	93.00115       	92.45893       	92.54681       	91.21862       	91.93877       	93.57852       	90.881454      	93.15478       	92.78602       	92.359024      	92.37139       	92.355095      	92.26629       	92.19099       	92.88008       	92.17306       	93.83949       	
91.68812       	93.049484      	93.548134      	93.60605       	92.31884       	93.44301       	94.01026       	92.64566       	93.42116       	93.86918       	93.28768       	92.756905      	94.04154       	94.23991       	93.34593       	94.115204      	94.55722       	93.59295       	93.37059       	94.791756      	93.64369       	93.466805      	94.38561       	94.08621       	93.46774       	94.32309       	94.38537       	93.37147       	94.60136       	95.110886      	93.14686       	95.74756       	93.96962       	94.44496       	94.668076      	94.90834       	94.44101       	95.33142       	93.975235      	95.51641       	94.84996       	93.59189       	95.67874       	93.81562       	95.047966      	94.46828       	93.86093       	94.25432       	92.508354      	93.271835      	93.07111       	93.08151       	93.687706      	94.20731       	93.51533       	94.771866      	92.79454       	93.4973        	94.14286       	93.02568       	95.21193       	93.80224       	94.985634      	93.42227       	93.68338       	94.44876       	93.6499        	93.96948       	94.31783       	93.87181       	93.056435      	93.89814       	93.325554      	93.66603       	93.25939       	92.41301       	94.00316       	92.30221       	94.8446        	94.92674       	93.677986      	94.84737       	92.166824      	94.23616       	93.27309       	92.259155      	92.97267       	91.904434      	94.29292       	94.41382       	92.8901        	93.78121       	93.26802       	92.89701       	93.3564        	94.07203       	91.86634       	92.622444      	94.687706      	91.754326      	
91.48634       	93.54532       	93.42354       	93.06805       	92.5257        	93.167         	93.95772       	91.79259       	93.14825       	92.76817       	92.247574      	92.86568       	93.308075      	92.385544      	92.55082       	93.479774      	93.716324      	93.024605      	94.0302        	94.180336      	93.75975       	93.81311       	93.96093       	93.908066      	93.490814      	92.910446      	93.90517       	94.39225       	93.53797       	94.19766       	94.663246      	93.494736      	95.624405      	94.06524       	95.70729       	93.06959       	94.99793       	93.90315       	93.87952       	94.68538       	94.20272       	94.07099       	94.23862       	94.47664       	93.677376      	94.00847       	93.17826       	93.79871       	95.33955       	93.29004       	93.807365      	94.31009       	93.05097       	94.89293       	93.68535       	93.457016      	94.78504       	93.34547       	93.853645      	94.07679       	92.83785       	93.06404       	94.60931       	94.091095      	94.9158        	94.63305       	94.19149       	94.98657       	92.359634      	93.197105      	92.83867       	92.70023       	94.137726      	92.484085      	93.82768       	93.00365       	93.49979       	92.17093       	92.75776       	92.19996       	93.0319        	94.08294       	91.61797       	93.08934       	92.7377        	93.0587        	92.98455       	92.57133       	91.46323       	91.45879       	92.89106       	94.245186      	91.030975      	93.49983       	93.84266       	92.26069       	94.214096      	93.63257       	93.889534      	94.641655      	
93.236465      	93.90287       	93.81661       	93.18985       	93.06743       	94.23449       	93.70051       	93.271286      	94.48998       	92.69478       	91.951614      	94.32284       	92.80643       	92.214615      	95.18624       	93.139244      	93.46524       	94.40673       	93.398796      	94.13985       	93.6158        	93.25882       	94.21335       	94.183846      	92.96984       	95.24842       	94.84801       	93.801956      	94.5175        	95.623856      	94.71363       	94.49368       	94.99739       	94.021805      	94.7249        	94.52764       	94.76332       	94.10628       	94.48312       	93.62778       	95.4344        	93.83183       	94.50333       	93.913895      	92.6223        	95.04081       	93.35484       	95.62322       	94.53209       	92.52229       	94.978424      	93.781334      	93.06353       	94.8429        	93.9995        	93.70423       	95.13834       	94.01864       	93.54951       	94.18957       	94.76814       	93.49511       	94.28166       	94.27043       	94.03472       	94.04627       	93.90821       	94.182144      	94.03944       	93.18419       	93.60344       	94.06355       	92.87411       	93.780106      	93.43019       	93.384026      	93.35656       	91.99166       	93.9251        	92.30989       	92.33093       	93.32118       	92.864655      	92.8754        	92.064         	92.565155      	92.36287       	91.67367       	91.60462       	92.39867       	92.094475      	91.466156      	92.552505      	91.50862       	91.900566      	92.9452        	91.04614       	92.528046      	94.08634       	91.552155      	
92.95106       	93.99768       	93.69968       	93.65056       	93.991135      	93.977295      	93.42702       	93.5056        	93.67765       	93.220474      	93.41009       	94.186226      	94.05021       	94.375725      	94.84546       	95.84531       	93.88313       	95.6106        	94.73862       	93.42379       	95.876144      	95.53529       	93.62851       	94.482925      	95.4051        	93.697075      	94.22438       	96.27263       	94.05485       	94.317024      	95.16166       	94.23058       	93.70703       	95.14639       	94.88322       	94.564545      	95.07341       	94.77571       	94.563934      	95.29049       	94.70133       	95.79253       	95.45846       	94.99849       	94.81706       	94.91198       	94.05469       	94.9039        	94.53585       	93.343704      	95.189445      	93.88696       	95.079315      	94.06459       	93.29837       	94.83556       	94.2           	94.34798       	95.30944       	94.208725      	94.212906      	95.39099       	94.61447       	95.124275      	95.06977       	94.926056      	94.91619       	93.9024        	94.95565       	93.752914      	94.3296        	95.87715       	94.541504      	95.0668        	94.15062       	94.50073       	94.52717       	94.308914      	94.429214      	94.659195      	93.17513       	94.25691       	94.94747       	93.15669       	95.26897       	94.57237       	94.24993       	93.813545      	93.288086      	93.251274      	93.796036      	93.65662       	93.83769       	93.96912       	93.40178       	94.71152       	93.94522       	94.20778       	94.52945       	93.09541       	
92.19409       	93.486176      	94.268196      	94.096855      	92.60746       	95.40031       	92.87452       	93.82056       	94.57377       	92.62432       	94.854095      	94.446686      	93.65304       	94.58575       	94.93916       	93.92578       	94.57951       	94.27051       	94.75993       	94.59169       	94.62221       	94.39425       	94.767006      	94.73092       	94.826035      	94.57529       	96.62776       	95.38464       	94.492226      	97.03824       	94.76351       	93.98675       	96.954796      	93.64234       	96.52638       	96.045334      	95.29029       	96.043594      	94.816376      	95.684074      	95.57675       	94.58821       	95.01462       	95.40715       	94.67451       	95.40638       	93.8715        	94.36024       	94.94779       	93.97262       	95.44203       	95.18208       	95.341675      	95.9723        	93.88338       	94.64457       	95.64494       	93.81822       	94.64393       	95.18312       	94.601456      	94.87276       	95.474045      	93.7793        	95.40895       	95.03109       	93.69596       	94.40744       	93.302864      	92.96623       	93.98991       	93.146454      	94.51635       	93.180374      	92.91344       	93.45988       	92.86726       	93.98148       	94.133095      	93.98571       	93.37538       	93.683304      	93.26497       	94.69811       	93.34542       	93.40165       	93.80952       	93.27701       	93.56059       	93.268936      	92.839         	93.597336      	92.07414       	93.61458       	93.330215      	91.996956      	94.02432       	92.70104       	93.12032       	93.50064       	
92.48338       	94.22916       	94.25506       	93.25091       	94.94797       	94.817825      	94.3748        	95.209564      	94.01134       	94.49014       	94.07356       	95.01814       	94.78179       	94.48877       	95.17753       	93.566414      	94.968056      	94.15408       	93.73482       	94.78126       	93.19646       	93.44076       	94.201096      	92.64966       	93.84193       	94.19046       	93.7041        	94.6567        	93.87267       	92.95867       	95.78586       	95.428154      	93.58288       	95.86683       	92.76009       	94.50246       	91.98805       	93.70059       	95.704575      	92.11661       	93.316666      	95.62987       	92.61808       	94.98368       	93.26046       	94.394646      	94.22245       	94.56808       	94.12605       	94.98186       	93.66286       	94.43521       	94.718376      	93.56066       	95.857704      	94.890884      	93.130585      	94.666176      	95.426926      	93.48943       	94.72717       	94.25169       	94.63454       	94.670845      	95.23183       	94.93415       	93.47126       	95.24712       	91.927475      	95.20257       	92.936356      	93.88228       	95.06185       	92.84227       	95.414604      	91.29619       	93.30229       	95.29582       	90.98907       	94.63409       	95.81684       	90.62125       	95.24364       	91.11076       	94.63628       	91.74523       	90.74074       	92.06105       	90.93916       	93.58802       	91.01045       	91.873535      	91.94918       	91.73587       	92.80074       	91.62678       	92.67268       	92.215866      	92.69372       	92.713326      	
94.06592       	93.85892       	94.10298       	93.909515      	93.36656       	93.67106       	94.30685       	94.26671       	93.83851       	94.25732       	94.477         	94.248505      	94.19367       	95.775635      	94.00508       	93.84864       	95.09517       	93.45982       	95.34859       	95.27938       	93.50469       	95.01845       	95.26014       	92.80213       	95.58019       	93.916176      	93.77233       	95.16155       	94.799355      	94.44837       	95.812775      	95.36518       	94.4756        	95.41869       	95.1591        	93.74057       	95.690506      	94.847694      	95.328384      	94.32468       	94.2974        	96.301796      	93.93644       	94.74843       	95.53822       	95.80634       	95.583855      	95.6201        	95.17187       	95.920006      	95.06761       	95.06528       	95.97545       	94.89401       	94.55706       	95.665474      	94.30306       	93.72592       	95.79739       	94.94381       	93.576324      	96.15848       	93.83483       	94.65776       	95.6292        	94.02577       	95.687256      	93.93419       	94.660576      	94.5797        	93.51144       	95.18518       	93.920296      	93.44113       	93.81727       	93.89955       	93.44593       	93.68091       	94.11032       	93.55113       	93.260284      	93.80052       	93.20488       	93.14336       	92.75436       	92.90284       	93.74779       	92.58216       	93.774155      	94.097824      	92.09489       	92.91124       	92.23322       	92.66765       	93.362465      	91.570244      	94.87404       	95.15363       	92.487465      	93.81746       	
92.963974      	93.746445      	93.59213       	93.12409       	92.58028       	93.71092       	93.06371       	91.801056      	93.825455      	93.438705      	92.26458       	94.044174      	93.20802       	93.583405      	94.35624       	92.087616      	93.85338       	92.70385       	92.46993       	93.81975       	91.19969       	91.75232       	93.70448       	90.867325      	92.4252        	92.68965       	91.02064       	93.577774      	90.657196      	94.377396      	91.915596      	93.96125       	93.00134       	93.13055       	94.94305       	91.35567       	94.66246       	92.92565       	93.16961       	95.46777       	91.87845       	93.42261       	95.22979       	92.42691       	94.18253       	94.61909       	92.33696       	95.6757        	92.75795       	94.666435      	94.16594       	92.60322       	94.610756      	93.728386      	93.842636      	94.18246       	93.88285       	93.75475       	94.03111       	94.38563       	94.136215      	93.8           	94.86653       	93.05744       	94.12842       	93.33904       	94.075165      	95.5535        	93.876656      	96.70549       	93.20997       	94.61427       	96.27941       	92.2723        	93.76494       	95.631805      	91.79778       	94.27424       	95.20159       	92.09698       	95.87685       	94.763985      	94.624435      	96.311035      	93.628555      	95.47328       	93.226974      	94.68429       	95.51482       	93.96524       	94.54558       	94.30301       	94.81307       	93.68088       	94.91605       	93.89204       	94.31995       	95.88329       	94.00019       	94.13331       	
94.16149       	94.057976      	94.07797       	93.78854       	93.99886       	93.90527       	93.87035       	94.25522       	93.93006       	94.06111       	93.49503       	94.278145      	94.34991       	94.119576      	95.28631       	93.03995       	93.78566       	94.18092       	93.0946        	94.194664      	93.26492       	92.91265       	94.096954      	93.037994      	93.49254       	93.14644       	93.32199       	93.9689        	93.4642        	93.27581       	94.53641       	92.63177       	94.48605       	92.51331       	94.40479       	93.552986      	93.2931        	94.15162       	92.12044       	94.30509       	93.16353       	93.04076       	95.53099       	92.67996       	94.323364      	94.39973       	93.190956      	94.47606       	94.12453       	94.39816       	93.91071       	94.86948       	93.367645      	95.24674       	93.950356      	92.998344      	94.90811       	93.49108       	92.44786       	93.99266       	93.95192       	93.17244       	93.45932       	94.21008       	92.642166      	94.2247        	93.76936       	92.76054       	94.5586        	92.76266       	93.90519       	93.85481       	92.987274      	94.430626      	93.428925      	93.94006       	93.61225       	93.979996      	92.87363       	92.56656       	94.1001        	92.528         	92.60209       	93.0693        	92.75076       	93.601555      	92.22338       	93.185844      	93.19697       	92.07679       	93.20252       	92.852264      	93.68853       	92.71059       	93.73785       	94.398674      	92.64069       	93.439224      	94.39362       	92.867966      	
93.98487       	94.32861       	94.81729       	93.593636      	93.79849       	94.800575      	94.159996      	94.049355      	93.9005        	95.671394      	93.930534      	96.13299       	94.908066      	93.350204      	96.283676      	93.59423       	94.33011       	93.47893       	93.02543       	96.0348        	91.99882       	94.03553       	93.83283       	92.53415       	94.9023        	94.2351        	94.068794      	94.534065      	94.08748       	94.05268       	95.37268       	94.568344      	93.53014       	95.08178       	93.838295      	96.26371       	93.58764       	94.89334       	94.80577       	94.242905      	95.34961       	93.95454       	94.97975       	93.886406      	95.299355      	95.408195      	94.12622       	94.90149       	93.76469       	96.02702       	93.594406      	95.64619       	93.9707        	94.39638       	95.723595      	92.91011       	95.38615       	94.18546       	92.36547       	95.15439       	95.41948       	91.997475      	94.84823       	94.260895      	92.41777       	96.07646       	92.09844       	95.34866       	92.89022       	93.884415      	95.40288       	94.56861       	94.70712       	93.826675      	94.46768       	93.99252       	95.34924       	94.40349       	93.97541       	93.79167       	93.15947       	95.52565       	92.29135       	95.23953       	92.8013        	92.05704       	93.82358       	92.42057       	94.37025       	93.67967       	92.923325      	93.41968       	93.26461       	93.374466      	93.79768       	93.17487       	93.17428       	94.0919        	92.054855      	93.830605      	
94.42548       	93.86332       	93.89168       	94.40067       	93.85666       	93.49236       	94.18217       	93.95916       	94.06705       	93.84722       	94.190475      	93.870476      	93.40157       	94.68785       	93.617546      	93.49548       	93.78776       	93.11162       	95.25069       	93.846954      	93.02648       	94.45504       	93.21331       	93.39275       	93.8907        	92.989655      	94.309555      	94.55889       	93.7906        	95.61401       	94.14052       	94.09371       	95.10301       	94.11027       	94.78608       	94.9441        	92.68281       	95.292915      	93.21289       	93.5684        	95.4254        	93.13454       	94.44787       	95.75753       	93.56848       	95.386406      	94.594536      	94.18056       	95.57305       	94.5726        	94.56312       	94.920525      	94.98154       	94.2263        	95.03836       	95.00361       	93.50033       	94.737625      	93.702705      	95.88935       	94.58464       	94.99887       	96.58404       	94.25687       	94.04122       	95.41858       	93.21933       	95.37507       	94.2463        	93.41756       	94.441666      	93.673256      	93.39334       	94.39408       	93.130486      	93.02628       	95.065636      	93.39168       	94.39737       	93.308174      	94.09143       	94.24023       	92.565254      	93.61646       	92.923744      	92.67912       	93.25221       	92.5632        	93.50325       	93.330894      	92.63054       	92.80452       	92.69552       	92.334114      	93.913506      	93.51411       	93.54598       	94.29005       	93.699814      	94.09177       	
94.42997       	93.57298       	93.392944      	93.2275        	94.00909       	93.542534      	93.76726       	93.18376       	92.62098       	92.26749       	93.42094       	94.06819       	92.43216       	93.78643       	92.68208       	93.04163       	93.32431       	93.329384      	92.49964       	93.914825      	92.892426      	93.06365       	93.355415      	92.5334        	92.8951        	93.36323       	93.292465      	93.742516      	93.27522       	93.53275       	93.59732       	92.880424      	94.29997       	93.14275       	93.36759       	94.09803       	93.13832       	92.97286       	94.81087       	92.871956      	93.42935       	94.41393       	94.14598       	93.38761       	94.911415      	94.2141        	94.910324      	94.48788       	94.371475      	95.17461       	95.15716       	94.00057       	94.967766      	93.52489       	93.92428       	94.24739       	93.37247       	94.714615      	93.34672       	93.44504       	94.129715      	93.80571       	94.120255      	93.8142        	94.49418       	94.474594      	94.44329       	94.20259       	93.713326      	93.472404      	93.76091       	94.46486       	94.05701       	94.63795       	94.69214       	94.42203       	93.832016      	94.42471       	93.97385       	93.36219       	94.57178       	93.41218       	94.29655       	94.22659       	93.46484       	95.385796      	92.56973       	93.630135      	94.77368       	91.83745       	94.84201       	91.5148        	93.558235      	95.10395       	92.152374      	94.17493       	92.4325        	93.65372       	94.52131       	93.07159       	
92.69324       	94.24749       	95.016975      	94.384125      	92.00167       	94.56833       	94.11656       	92.42203       	94.07317       	92.44264       	92.2149        	93.145836      	93.15662       	93.91661       	92.989006      	93.920204      	92.96627       	94.32872       	95.300545      	93.2304        	94.82255       	92.987686      	92.09266       	94.06605       	93.31684       	93.14739       	94.06975       	93.74474       	93.56822       	93.51522       	93.14794       	93.6903        	93.20142       	93.21141       	94.75583       	93.53828       	94.13044       	95.12932       	93.80861       	95.484116      	93.82518       	93.97155       	94.80993       	93.77609       	94.85816       	94.191376      	94.23143       	94.12838       	94.010124      	95.14922       	94.197395      	93.77587       	95.456665      	94.11406       	93.26994       	94.535286      	92.709595      	95.51956       	93.92025       	95.54234       	95.44746       	94.87512       	96.54323       	93.82638       	95.68871       	93.99984       	94.17956       	94.48019       	93.639984      	94.22948       	93.64274       	94.64099       	94.270035      	93.75072       	94.93322       	92.86797       	95.04707       	94.17416       	92.84364       	96.541145      	93.16185       	93.14897       	96.301285      	91.73835       	95.05265       	90.92932       	93.90378       	91.69257       	91.088394      	95.26509       	90.58529       	94.54593       	91.39202       	92.98918       	96.045364      	92.27409       	94.84929       	93.109215      	94.62865       	95.39708       	
93.32966       	92.493256      	93.045784      	94.05387       	92.85426       	94.05102       	94.29062       	93.59547       	94.807495      	93.48211       	94.669304      	93.876045      	95.78493       	95.178055      	93.42137       	95.427864      	92.67274       	96.46001       	94.15721       	92.24426       	96.4895        	92.69382       	92.629845      	95.44013       	94.89958       	94.33545       	94.669395      	93.4517        	95.17699       	94.016846      	95.37132       	93.958046      	95.52722       	93.64511       	93.79424       	93.79626       	93.46935       	95.555756      	93.838104      	97.068886      	94.354294      	94.421074      	96.42546       	93.73938       	95.99047       	94.78081       	94.72185       	95.368614      	94.82442       	95.02315       	94.67375       	93.72203       	93.57657       	94.70656       	92.719604      	94.06355       	94.41426       	95.054474      	95.20576       	93.23674       	93.47852       	92.488884      	93.09361       	93.00612       	92.64704       	94.46723       	92.65028       	94.080246      	94.10918       	92.98532       	93.09627       	93.59523       	92.60733       	93.77703       	93.08006       	92.94193       	93.66805       	92.755875      	92.913734      	93.6032        	92.93214       	92.41772       	92.89489       	92.64758       	91.95467       	92.96736       	91.26425       	91.89693       	92.511055      	91.025505      	92.12005       	91.230515      	91.52904       	93.00353       	91.19987       	92.37141       	92.16565       	92.6692        	92.50278       	92.57289       	
93.86639       	90.29046       	90.627335      	94.13936       	91.176315      	91.25012       	92.6201        	90.93465       	92.708015      	93.49174       	92.28191       	95.19241       	93.33973       	95.42867       	94.50545       	95.345085      	95.0348        	93.63997       	95.531685      	92.03621       	93.680626      	94.17802       	91.13764       	95.54469       	94.48555       	93.39871       	95.50809       	92.08334       	94.700966      	92.524506      	92.6672        	93.58458       	92.40949       	94.22612       	94.60774       	94.061935      	94.711296      	95.078476      	93.923744      	94.96782       	94.815865      	94.48617       	95.567         	93.25091       	96.14525       	95.46687       	92.83544       	96.32503       	94.06499       	94.58788       	94.5308        	93.00703       	95.243256      	93.27933       	94.4904        	94.424934      	93.97774       	94.703766      	94.1191        	93.89339       	94.34448       	93.44486       	93.53369       	93.618805      	92.04016       	94.07864       	93.907425      	93.74334       	94.35941       	92.54381       	93.6427        	94.069016      	92.597336      	94.03064       	93.64245       	93.2497        	94.18686       	93.49794       	94.09238       	94.34701       	92.88942       	93.678604      	92.73961       	93.68851       	94.45527       	92.46242       	93.83232       	91.755936      	92.657555      	93.64644       	92.11815       	93.20175       	92.60536       	92.42327       	92.88009       	92.29443       	92.99665       	93.41889       	93.55052       	93.21146       	
92.33711       	95.07326       	96.290276      	92.151695      	93.59859       	96.7295        	91.73213       	94.77104       	96.94193       	93.97058       	97.14115       	95.541626      	95.696304      	94.36748       	94.18383       	94.545975      	94.22587       	94.38358       	94.47049       	94.06922       	93.82525       	94.228676      	94.426384      	93.10828       	94.81064       	93.838615      	96.24243       	95.11972       	94.71516       	96.035355      	93.69609       	95.64002       	93.640976      	95.15092       	95.86698       	95.04853       	94.70241       	94.58975       	93.72433       	94.228935      	94.512245      	94.00586       	95.114746      	94.19722       	96.43558       	94.39441       	94.52592       	94.00662       	92.84371       	95.973495      	93.42144       	94.886795      	94.617546      	92.15592       	96.017876      	92.30978       	95.801056      	93.029816      	94.95321       	95.17504       	95.02755       	94.783966      	94.78088       	95.07769       	93.414215      	95.79941       	94.54082       	95.71712       	93.721634      	93.31517       	95.01724       	91.4099        	93.0638        	95.39141       	90.967445      	92.72446       	95.761734      	91.565704      	95.65369       	91.126205      	92.75642       	92.26763       	93.174324      	92.660774      	92.951485      	93.80997       	92.217415      	92.69227       	93.51557       	94.24484       	92.15179       	93.44683       	92.96121       	92.25387       	93.96          	92.75326       	92.160934      	93.79289       	92.67311       	94.52124       	
92.46966       	94.681366      	95.28796       	91.49135       	93.452805      	95.69133       	92.192024      	93.752235      	95.42253       	93.12962       	95.85029       	94.18554       	94.6811        	95.939316      	94.66322       	95.265434      	94.184044      	93.75843       	95.25279       	93.63072       	93.8949        	94.994644      	92.67302       	93.97327       	94.11218       	95.91292       	95.67696       	93.26771       	96.083496      	92.52436       	95.05899       	96.20535       	94.37427       	96.43173       	93.4696        	95.89174       	93.48414       	94.08936       	95.32177       	93.26877       	94.09323       	92.487755      	93.7836        	93.454025      	94.779915      	94.057205      	95.2061        	93.583244      	94.73722       	94.98128       	92.45093       	94.52706       	92.286705      	96.424934      	94.33289       	95.34573       	95.74574       	93.362434      	95.03182       	93.20264       	94.138725      	93.83985       	92.70983       	95.0144        	93.74081       	94.23122       	95.20555       	92.39206       	95.1003        	93.32846       	94.282295      	93.5391        	91.84379       	95.06151       	91.174355      	92.37651       	95.55018       	91.8754        	92.653275      	93.44697       	91.53791       	91.321815      	92.15809       	96.368645      	90.79414       	92.315926      	92.867836      	91.99108       	94.73683       	92.03137       	94.758545      	92.61584       	94.5818        	92.988144      	93.69803       	94.75813       	90.93731       	94.38736       	92.35946       	93.41288       	
91.71239       	91.086624      	94.16955       	93.1689        	92.2365        	92.39249       	94.31934       	92.56611       	92.06303       	93.10604       	92.9377        	94.93559       	92.361275      	95.82397       	93.42174       	93.24654       	94.03718       	93.12512       	94.03034       	94.48673       	92.60094       	95.33853       	93.72165       	93.58426       	94.63639       	94.19885       	94.4167        	93.31528       	92.95372       	94.02387       	92.5662        	94.87364       	94.141975      	94.05167       	94.247505      	93.75426       	94.15766       	95.03805       	92.88022       	94.31688       	95.03474       	93.11247       	93.22023       	95.38826       	93.1441        	94.096504      	94.590034      	93.55119       	95.899666      	93.545166      	94.33363       	94.75622       	94.05025       	95.10361       	94.67818       	94.67335       	94.51995       	93.919426      	94.72706       	93.943954      	93.75936       	94.11947       	93.80071       	93.37948       	95.44665       	93.767746      	93.59964       	95.02624       	92.89287       	95.71465       	92.30798       	95.04024       	95.24548       	91.216064      	95.22734       	93.54991       	91.35973       	93.64803       	92.18348       	91.47086       	93.67254       	91.61145       	93.23555       	90.64372       	94.49369       	91.3695        	94.76717       	93.15465       	92.633995      	95.58642       	90.857956      	95.402885      	89.82734       	92.65465       	91.65165       	90.789604      	95.28273       	92.20049       	92.78647       	94.53871       	
91.86325       	91.83772       	92.64413       	92.76929       	92.69591       	92.54925       	92.562096      	92.85224       	92.793945      	94.52046       	94.03731       	94.87322       	94.67929       	93.49046       	94.674675      	93.038506      	94.52653       	92.23481       	92.192635      	94.55774       	90.82014       	94.69307       	93.18037       	91.629524      	95.00724       	93.718254      	94.1847        	93.73546       	92.85326       	92.963165      	92.56978       	92.59923       	93.75302       	93.0685        	93.02968       	93.990555      	91.781425      	92.7307        	92.35428       	92.58721       	94.9231        	91.15328       	92.74383       	92.38732       	90.81939       	95.6638        	90.50155       	94.663826      	91.17304       	92.42895       	94.693886      	90.53944       	93.98841       	91.94768       	93.83107       	92.82426       	92.38337       	93.97224       	93.548454      	93.96403       	94.78425       	92.51152       	94.090935      	94.09685       	92.86923       	94.53348       	93.60839       	93.40173       	94.0348        	93.529915      	94.06698       	93.41829       	93.718765      	94.557785      	92.357994      	93.65998       	94.38161       	91.89929       	92.91          	94.15918       	91.88537       	94.490486      	92.71957       	93.63114       	93.9232        	91.73891       	94.188446      	92.53378       	92.903564      	92.734055      	93.46905       	93.50667       	93.328094      	92.3994        	93.70641       	94.38952       	92.654         	95.15379       	93.66009       	92.490166      	
91.27349       	92.730354      	94.027916      	94.2787        	93.310234      	93.59395       	93.967125      	92.32976       	93.33753       	93.44959       	92.92086       	93.46839       	93.00384       	93.48483       	92.95474       	92.92375       	93.594955      	93.92107       	93.42799       	93.7482        	94.20035       	92.9632        	93.10601       	94.871506      	92.14969       	94.48953       	92.20194       	95.38936       	95.32431       	91.99299       	95.16756       	91.76932       	96.63852       	92.656204      	96.448715      	95.014175      	93.201996      	95.34389       	93.31304       	93.28083       	94.32396       	93.1525        	94.85087       	93.899155      	93.93478       	95.615         	93.788376      	95.66444       	94.934494      	93.834595      	95.43864       	93.208984      	96.39921       	94.8182        	95.60003       	96.20549       	93.92315       	95.41426       	93.22737       	93.67566       	94.77177       	93.67378       	94.2998        	94.5219        	93.33439       	94.42908       	94.693886      	93.90461       	94.177826      	95.72093       	92.68216       	95.52825       	94.5979        	92.409874      	94.47829       	94.98261       	91.47022       	94.16862       	94.58021       	92.04573       	95.82878       	92.493034      	94.797806      	93.87044       	92.409256      	94.00875       	92.449715      	92.32549       	93.228165      	93.18879       	94.37831       	94.97222       	94.0588        	95.561935      	91.58915       	95.72923       	95.91304       	92.9142        	96.14418       	94.57625       	
94.127         	94.883095      	95.1244        	94.56874       	94.136154      	95.02973       	93.96099       	95.41427       	95.60853       	93.23497       	96.46436       	94.10988       	94.70329       	95.60046       	93.45284       	94.889244      	93.038574      	93.211754      	95.03807       	92.22987       	94.37981       	94.71395       	92.626114      	94.43205       	93.872345      	92.88805       	94.248764      	93.08575       	93.433945      	93.247         	92.97855       	93.4965        	93.21994       	93.35083       	94.53085       	93.86219       	94.27528       	94.18035       	93.79521       	94.53619       	93.77216       	94.36211       	95.19942       	93.917404      	95.33409       	94.30033       	93.780235      	96.15173       	92.17863       	96.978165      	91.905235      	95.93511       	93.80167       	95.69763       	94.299225      	94.56353       	94.995415      	94.04626       	94.56511       	94.06344       	93.51274       	93.98531       	94.14438       	93.4049        	93.53456       	94.84219       	94.017456      	94.01119       	94.97289       	93.67078       	92.92067       	94.842735      	94.08172       	93.56629       	94.29259       	94.230156      	92.72818       	93.7032        	93.882866      	93.54408       	92.94349       	94.074875      	92.524796      	93.52515       	92.11047       	91.937294      	93.581894      	92.65772       	93.611275      	93.283195      	92.72795       	93.4472        	92.64943       	92.91012       	94.465866      	92.392624      	93.42166       	95.36321       	93.06186       	94.48242       	
94.14057       	94.033905      	92.99679       	92.05931       	95.04537       	93.108444      	91.43436       	95.66162       	92.661865      	96.339325      	94.961716      	93.19043       	95.43205       	94.48424       	93.80812       	94.83343       	94.48732       	93.9034        	94.53406       	94.734856      	94.28063       	94.35084       	94.46761       	95.9565        	94.10402       	94.02402       	95.28285       	94.23485       	93.15101       	95.400314      	93.14701       	94.6488        	94.27263       	93.69284       	96.45604       	93.13162       	95.057236      	95.57266       	92.67886       	96.128         	93.435455      	94.9852        	95.50019       	93.755424      	94.32731       	94.88609       	93.92905       	94.26164       	94.8496        	94.5442        	94.18366       	94.82568       	94.517         	94.89765       	94.48836       	94.72606       	95.74394       	94.251015      	95.79849       	94.503975      	93.959854      	95.04235       	93.1213        	94.849014      	94.09699       	92.482086      	94.01679       	92.60954       	93.59218       	94.59056       	94.12379       	93.14873       	93.6134        	93.37697       	92.79058       	93.405716      	94.02706       	92.835335      	93.01637       	94.65412       	93.21404       	93.11551       	93.85375       	92.70956       	93.9945        	93.71709       	92.667496      	93.91688       	92.9297        	94.34815       	94.45134       	92.64722       	94.70319       	94.54041       	92.609245      	94.92425       	95.441696      	93.18956       	93.71451       	95.076584      	
92.76269       	95.92163       	95.80279       	95.67118       	95.76424       	95.614105      	93.13083       	96.55965       	93.533485      	92.56695       	94.83654       	92.89952       	96.70631       	94.92614       	95.057915      	95.78112       	92.57015       	97.339615      	95.19585       	92.56601       	95.89666       	96.697586      	93.68237       	95.33798       	96.32195       	94.50546       	96.29215       	94.31418       	95.61653       	94.83941       	95.84957       	94.32075       	96.100105      	94.88765       	95.165215      	96.72999       	93.29759       	95.600395      	95.566154      	92.908394      	96.10641       	93.9472        	93.98372       	95.80258       	94.32943       	94.53955       	94.97632       	94.31581       	94.44012       	95.136734      	95.71683       	94.2173        	95.818245      	94.97892       	95.783646      	96.342766      	93.19988       	95.59216       	91.41448       	96.19949       	94.90367       	91.71386       	95.61268       	96.09485       	91.30203       	96.94929       	94.06346       	93.50835       	98.008194      	91.63758       	94.58366       	97.482346      	92.384964      	94.05162       	96.287506      	90.84485       	95.063675      	96.86201       	90.93956       	93.23064       	96.850815      	92.002106      	92.651535      	96.03476       	91.66771       	92.54025       	95.20879       	92.07618       	93.04077       	93.23515       	91.96243       	95.01554       	94.616165      	93.147354      	93.87574       	91.70623       	93.82609       	94.54739       	92.55781       	92.72205       	
94.48261       	90.85426       	93.43566       	95.04903       	94.57378       	91.94188       	94.321236      	93.03141       	92.93981       	93.87769       	93.463776      	94.198555      	94.15306       	93.825195      	93.74714       	94.21789       	94.31951       	94.056274      	95.008675      	93.0531        	93.54025       	95.69356       	93.190926      	94.668686      	95.09346       	92.601         	94.98347       	92.7917        	94.417755      	94.931244      	94.20364       	94.4567        	95.402115      	94.64873       	94.34649       	95.280136      	93.36462       	96.087685      	93.650276      	95.58029       	95.07588       	91.955574      	96.24983       	93.23624       	94.317635      	95.60159       	93.386925      	93.878174      	94.13868       	94.08379       	94.130974      	94.21245       	95.26831       	93.48876       	95.51673       	92.76508       	94.086075      	92.8557        	92.76285       	94.54891       	92.18953       	94.85046       	93.66631       	92.35695       	94.25465       	92.43465       	93.82358       	93.80803       	93.07768       	93.132904      	93.073074      	93.15348       	92.95308       	93.920074      	92.43007       	93.24242       	94.18422       	92.686905      	95.83736       	93.25512       	93.38756       	95.00553       	92.16601       	93.75264       	94.91176       	92.62366       	95.40389       	93.62328       	93.8807        	94.221         	93.38227       	93.997475      	93.93719       	93.020065      	93.89181       	94.22684       	93.56227       	93.62182       	94.365         	93.284775      	
95.47706       	92.37739       	91.38151       	92.47145       	92.09283       	91.76815       	93.64769       	94.49162       	92.51749       	93.80176       	94.104164      	92.80065       	93.503586      	93.89131       	93.40332       	94.61225       	93.59753       	92.79961       	94.72704       	94.122894      	93.0398        	94.56103       	94.93981       	93.45171       	93.94978       	96.26998       	95.21872       	95.73971       	93.87866       	95.10852       	94.84209       	93.77265       	96.05881       	94.90618       	94.44938       	94.856415      	93.9676        	95.84582       	94.22612       	95.07448       	96.035934      	93.98302       	94.070915      	94.79944       	93.57889       	94.22315       	94.276764      	94.1724        	94.61276       	94.972946      	93.59813       	95.73475       	94.10092       	93.26134       	97.04265       	92.471504      	94.487076      	92.20199       	93.79759       	93.977425      	91.48115       	96.28503       	91.85091       	95.16804       	93.22892       	94.37043       	94.7677        	92.19567       	94.89395       	94.12108       	92.172646      	93.99759       	93.29682       	93.497734      	94.01965       	94.14351       	93.607994      	93.19393       	94.231926      	93.49649       	92.61018       	93.43934       	93.713455      	91.64882       	93.89381       	94.27796       	91.89023       	95.71075       	90.44294       	94.70383       	93.45389       	91.28914       	97.01884       	93.975655      	91.49223       	95.31864       	94.57286       	91.20069       	96.09473       	94.67785       	
94.44858       	92.802216      	91.963905      	92.16362       	94.13045       	94.91572       	91.87813       	94.43289       	94.69279       	93.170784      	93.87694       	92.6044        	93.8723        	94.92525       	92.36598       	94.28991       	93.89786       	92.74975       	93.50748       	92.988144      	93.75753       	92.84052       	94.098595      	92.91154       	92.3953        	93.97969       	94.36384       	94.65842       	95.7623        	92.77055       	95.99752       	91.543         	95.468254      	96.44127       	93.876595      	95.88799       	93.13813       	96.09089       	93.03986       	94.29687       	96.38888       	91.04394       	95.804855      	93.42943       	92.574776      	96.59363       	92.662735      	90.986336      	96.36192       	93.68575       	92.26712       	95.91816       	94.75957       	92.50575       	94.33371       	93.4002        	92.294365      	93.89486       	92.375244      	93.68758       	93.47637       	92.93498       	93.448494      	95.03273       	93.587166      	93.78295       	94.22606       	92.922516      	93.21198       	94.115234      	93.778534      	92.75227       	93.63283       	93.95059       	92.142365      	94.56063       	93.064316      	92.315994      	95.59898       	93.586105      	92.409004      	95.13611       	94.08517       	92.494064      	94.35936       	94.56218       	92.012985      	95.81316       	96.05214       	93.441246      	95.34816       	93.84862       	92.39271       	95.59903       	94.3627        	93.43431       	94.90648       	94.16405       	93.96127       	94.12218       	
93.64516       	91.25877       	91.48072       	93.09496       	96.11574       	94.618614      	94.70059       	93.93696       	92.06742       	94.95605       	91.04203       	93.92733       	95.40218       	93.28891       	95.34895       	94.25041       	93.02498       	94.81125       	93.15407       	94.433556      	94.468956      	94.33869       	95.05899       	93.22649       	94.07825       	94.38972       	94.57963       	93.69899       	94.66458       	93.55502       	93.54383       	93.67935       	92.67334       	94.71046       	92.24638       	92.841835      	93.55567       	93.717865      	94.21738       	93.91663       	94.12226       	93.406296      	94.883965      	93.67221       	95.030396      	93.80661       	93.502266      	94.98882       	94.29314       	94.91483       	95.56144       	93.95463       	95.80649       	95.281364      	93.68075       	94.542274      	93.66988       	94.11696       	94.45857       	95.04146       	94.550735      	93.91493       	95.45325       	93.67835       	93.44376       	93.75036       	92.13353       	94.63614       	94.11178       	91.79937       	93.04326       	94.73851       	91.64814       	92.29924       	94.50879       	92.08824       	92.80756       	93.616104      	92.53289       	92.5747        	92.959404      	93.46335       	92.60363       	92.916374      	93.7316        	93.85327       	92.0942        	94.367065      	92.63317       	93.29379       	94.1528        	92.96354       	91.94355       	94.3899        	93.48675       	92.623405      	93.2956        	93.421234      	93.415474      	92.33403       	
94.6003        	93.819855      	93.65435       	93.8581        	93.39281       	92.51177       	93.958176      	94.926895      	92.83561       	94.23265       	93.20407       	94.421875      	95.606865      	95.036736      	95.84905       	92.22313       	93.21505       	91.52861       	93.12435       	96.60404       	91.51338       	96.77946       	93.77105       	96.69925       	95.516685      	92.34712       	96.91252       	91.52876       	97.164665      	94.18825       	95.09026       	96.82055       	91.00624       	97.073456      	93.95013       	95.32187       	95.084274      	91.928154      	95.71709       	93.134766      	95.187454      	93.517914      	93.61581       	93.85547       	93.51847       	95.81335       	92.48852       	95.23921       	93.97994       	95.51559       	96.05823       	92.866875      	95.41855       	95.444046      	92.11662       	94.576675      	95.30769       	92.54208       	95.4248        	94.43119       	94.88573       	96.61282       	93.77237       	94.23092       	96.42757       	92.9133        	93.19212       	95.93411       	92.37602       	91.85306       	95.714264      	93.4581        	92.12159       	96.260056      	91.23514       	94.19865       	95.592514      	90.66757       	92.71146       	94.26855       	92.41475       	92.49121       	95.412056      	93.536446      	92.89392       	94.64132       	94.59118       	92.86234       	94.796425      	94.68248       	94.19146       	93.84492       	94.87218       	94.48523       	93.459366      	93.86674       	94.51041       	93.52011       	93.26811       	94.31178       	
89.67929       	92.46964       	94.25758       	94.43332       	92.681526      	92.65825       	94.27855       	91.389275      	94.6022        	94.95261       	92.62592       	93.55173       	92.588165      	93.77447       	94.903114      	93.06014       	93.55257       	94.597466      	94.29534       	93.81269       	94.37557       	93.0855        	93.5938        	93.35821       	92.28111       	93.21744       	91.71728       	93.51676       	94.91115       	92.353226      	94.46828       	91.49777       	94.03829       	92.294426      	91.71243       	94.76197       	90.72958       	94.10533       	96.089645      	92.78444       	96.262314      	92.58603       	93.50737       	94.136826      	93.11471       	94.96097       	94.73465       	94.18808       	93.93502       	94.240875      	93.446785      	93.43676       	93.47714       	94.21202       	93.78966       	92.48246       	95.16944       	91.67966       	92.728386      	94.35454       	93.006035      	94.012856      	93.19244       	93.44527       	94.67297       	92.019394      	93.70488       	94.10868       	91.5443        	93.03836       	94.660446      	91.1245        	93.36548       	94.85851       	91.33655       	94.02634       	94.679756      	90.85543       	92.95037       	94.750374      	90.43548       	92.35167       	95.69272       	91.240585      	92.21597       	94.92276       	92.10036       	92.24659       	95.13368       	92.872         	93.097466      	94.49081       	92.9878        	92.34518       	93.688705      	93.852554      	93.186195      	92.90279       	92.62943       	93.411         	
90.823906      	93.62269       	93.57948       	92.31078       	91.774536      	93.8381        	91.16181       	92.66031       	94.51814       	94.01602       	94.27486       	93.180084      	94.10058       	93.86275       	94.48807       	93.15113       	92.49201       	94.952385      	96.420204      	94.34643       	94.79503       	92.97778       	94.04318       	92.77995       	94.03564       	95.91496       	93.15462       	95.23596       	95.3919        	94.16495       	94.62935       	94.29313       	93.86588       	93.19669       	95.253746      	92.53636       	95.35181       	92.6692        	93.46289       	93.846855      	91.71854       	94.206474      	91.44178       	91.4171        	94.36203       	91.62299       	97.07223       	91.91553       	92.03505       	97.31373       	90.64498       	95.32891       	96.785286      	90.547134      	95.19473       	97.92004       	90.790565      	94.83836       	97.50765       	91.33379       	96.715744      	96.36512       	91.96193       	96.69931       	93.798744      	92.82966       	95.63335       	93.39407       	92.3593        	94.75565       	93.803024      	93.59741       	94.61751       	94.54473       	93.95475       	93.91674       	94.52802       	93.887985      	93.73713       	94.82027       	94.571075      	93.609         	94.21247       	94.89605       	93.83003       	93.76912       	96.60574       	94.07389       	93.788956      	94.95691       	93.47407       	94.23634       	95.5719        	92.77799       	93.882675      	95.57598       	92.94242       	93.69983       	95.04849       	93.29601       	
94.21259       	94.31646       	92.80153       	92.11427       	91.03081       	90.07711       	92.3018        	95.14452       	93.51189       	93.19093       	92.44234       	92.919846      	94.342735      	94.0341        	92.11852       	92.532646      	94.1977        	93.69027       	92.83467       	92.80844       	93.1481        	94.99116       	92.10774       	94.17648       	95.70846       	93.833626      	95.859245      	95.093254      	95.202324      	95.4111        	93.31096       	95.26877       	94.85743       	93.94378       	94.683975      	93.02587       	93.552376      	94.53357       	93.40698       	93.857376      	95.14082       	92.76864       	93.58434       	93.79691       	92.80214       	96.55162       	93.15286       	95.97285       	94.998         	93.52084       	95.68316       	95.52448       	93.21317       	94.99716       	94.75712       	93.65507       	94.9766        	95.22392       	94.54721       	94.69486       	95.047195      	94.5811        	93.6411        	94.68819       	93.40191       	94.03544       	94.86727       	93.47228       	93.02971       	95.20338       	94.06108       	92.19366       	94.57366       	94.55803       	92.80624       	94.21192       	95.18885       	92.840706      	94.76416       	94.88441       	93.1704        	93.39274       	93.89228       	92.90397       	93.13255       	94.08629       	93.4723        	92.66744       	93.91474       	93.619705      	92.8226        	92.772285      	94.333626      	92.75401       	93.47206       	94.98833       	92.525635      	93.7301        	94.66724       	92.61312       	
94.79789       	95.17191       	94.522095      	93.596725      	93.37833       	91.10226       	92.51846       	97.55223       	95.785286      	95.15857       	93.60949       	92.007454      	96.81868       	97.636215      	96.49893       	95.85446       	91.49154       	94.114426      	90.543495      	94.25621       	95.96274       	92.78846       	94.857834      	93.353874      	94.625946      	95.7148        	94.22161       	95.12497       	95.09828       	94.9244        	94.90356       	95.43549       	94.61833       	94.43361       	94.56731       	93.74126       	95.846405      	92.57898       	94.443756      	96.91037       	93.63541       	94.427246      	94.85098       	95.926834      	96.13361       	94.43581       	95.681206      	95.61583       	94.6582        	95.511894      	95.64513       	94.78818       	94.38978       	95.2074        	94.23766       	94.608         	95.46275       	95.40287       	94.913925      	96.097115      	96.78685       	93.96007       	96.41869       	95.18605       	94.274826      	95.38292       	95.06827       	93.42627       	95.00483       	94.40486       	93.808         	94.597694      	94.50111       	94.85808       	93.41591       	93.998825      	94.59671       	93.695305      	93.746254      	94.58544       	93.66533       	93.19597       	94.79865       	94.11989       	93.14413       	94.391         	95.0885        	93.62611       	94.45484       	94.704926      	94.74037       	93.899124      	94.34379       	95.02573       	94.7997        	94.228         	95.31588       	93.802765      	93.970375      	94.408455      	
91.88135       	92.54378       	93.894516      	95.78409       	96.15763       	93.33501       	93.694786      	94.03944       	94.74642       	95.521126      	93.87655       	94.09532       	92.41005       	96.01169       	96.78615       	94.55915       	94.890625      	92.673584      	93.874596      	92.63958       	94.91136       	96.22857       	94.55054       	95.155205      	94.913864      	95.12503       	95.72072       	94.2049        	93.91783       	94.48128       	93.26402       	94.069595      	94.29541       	94.56205       	94.60483       	95.13398       	94.03322       	94.491196      	95.956894      	93.71656       	96.50545       	92.97551       	94.733406      	96.62389       	93.14322       	95.576126      	95.921524      	93.406876      	94.88383       	95.85811       	93.77286       	93.722374      	94.7531        	93.97281       	94.08094       	95.60611       	93.42451       	94.3889        	96.287125      	93.88193       	93.92896       	95.74841       	93.31567       	91.864296      	94.90339       	93.63539       	91.821815      	95.09233       	94.03844       	92.002396      	94.28095       	93.66578       	91.999504      	93.83725       	94.741776      	92.31856       	94.49425       	94.58446       	93.44847       	95.33822       	94.8723        	93.002495      	95.449715      	95.70274       	93.07923       	94.062004      	95.43387       	93.12617       	93.31479       	95.277954      	93.576485      	93.51953       	95.43248       	94.14955       	93.06193       	95.05126       	93.86031       	93.81152       	94.62599       	94.531136      	
90.351685      	89.49151       	89.95976       	91.419304      	93.13058       	94.215256      	94.06668       	91.949554      	93.09056       	93.85268       	95.01081       	95.76765       	92.30277       	93.72006       	93.75896       	93.611046      	92.41287       	92.0065        	93.55648       	94.96225       	94.60348       	93.65148       	94.5956        	93.75941       	94.69292       	93.3733        	93.98306       	95.204796      	93.221245      	94.87032       	95.257744      	93.18297       	94.84249       	94.97742       	93.31599       	94.8355        	95.13752       	95.0087        	95.45191       	94.77905       	94.594086      	95.18754       	94.654305      	94.79843       	95.11364       	94.16257       	95.55313       	95.77596       	95.15978       	95.5459        	95.21032       	94.45612       	94.50902       	94.4169        	94.18138       	94.60953       	93.55234       	93.9809        	94.26534       	94.71256       	94.10684       	93.88962       	94.32795       	93.94367       	93.87276       	94.51191       	94.24506       	93.7928        	94.05824       	93.63078       	93.78417       	93.41276       	93.36193       	94.81145       	93.784676      	93.831406      	95.001785      	93.096695      	93.08862       	95.549484      	93.22719       	93.10918       	95.40496       	94.49034       	92.13619       	94.51885       	94.21358       	91.865585      	94.0409        	93.97497       	93.06419       	93.38801       	94.24109       	93.17912       	94.16764       	93.706635      	93.39241       	93.876595      	93.56337       	93.74467       	
93.109         	95.36559       	89.72245       	91.55943       	94.169426      	94.99377       	93.36393       	95.19965       	91.74047       	92.47745       	96.12952       	95.85405       	93.89656       	92.98319       	93.03443       	94.842285      	95.655716      	92.90101       	93.6932        	94.842514      	94.96138       	93.242744      	94.3304        	94.09158       	94.36049       	93.78293       	93.493324      	95.49801       	95.60595       	94.8184        	94.68106       	95.61466       	95.66089       	94.693344      	94.74435       	95.07966       	93.73626       	95.101974      	94.91981       	94.53999       	95.83676       	95.052414      	95.01985       	95.94542       	94.26154       	95.69461       	95.416916      	94.75475       	95.41854       	95.36079       	94.50906       	95.08804       	95.85656       	94.70496       	94.06868       	95.465126      	94.45851       	93.86392       	94.33886       	95.26824       	94.42811       	93.82094       	94.82179       	93.93066       	93.29072       	94.29217       	94.42284       	93.90901       	94.77077       	95.41162       	94.47922       	94.52428       	94.33239       	94.143105      	94.20398       	93.42079       	94.69489       	94.07059       	94.076324      	94.58757       	95.43405       	93.5435        	93.66934       	95.32713       	93.82468       	93.20804       	94.93361       	93.87556       	93.11203       	93.82681       	94.56351       	93.62784       	94.07043       	94.06019       	94.08634       	94.26845       	92.58046       	93.60547       	94.45816       	93.40529       	
93.213165      	93.96536       	90.721146      	92.07818       	93.61255       	94.55527       	94.463394      	94.535835      	92.76043       	92.928635      	94.66436       	94.90614       	93.3011        	94.4078        	94.237144      	94.851845      	95.1768        	93.138664      	93.97355       	93.65681       	94.74572       	91.731705      	94.76561       	95.54603       	93.33202       	94.69502       	92.758         	94.14188       	92.35795       	93.68261       	95.01838       	94.726944      	94.50141       	94.0055        	94.67596       	93.12823       	93.97419       	96.05994       	93.48553       	95.14637       	95.971725      	93.37212       	94.72155       	94.27055       	93.80405       	94.17046       	94.191605      	93.56718       	94.09584       	94.586464      	93.666016      	94.78095       	93.50609       	93.37013       	94.75041       	94.02493       	93.754814      	94.16703       	93.44821       	93.72743       	94.114784      	92.897026      	94.186         	92.900375      	93.969864      	94.16988       	93.83426       	94.24047       	94.50355       	93.77539       	92.66391       	94.08294       	93.77336       	93.78848       	94.38932       	93.68061       	94.33094       	93.8424        	93.091515      	93.76132       	93.55745       	93.51928       	93.503716      	93.26562       	94.28842       	92.8544        	94.4298        	94.17171       	92.82358       	94.67656       	94.29093       	93.80235       	93.97379       	94.32251       	93.95179       	93.60179       	93.78507       	92.82422       	94.780716      	92.38001       	
92.10396       	92.887375      	93.38924       	94.66551       	95.09474       	91.96733       	93.48261       	94.62302       	95.206635      	94.74305       	93.673965      	94.396866      	95.19472       	94.92139       	92.14688       	93.3029        	95.38329       	94.972084      	94.04285       	93.98079       	93.97818       	95.5056        	96.19772       	93.368034      	95.137764      	95.885895      	94.92909       	93.90548       	94.01025       	95.55095       	93.945175      	94.18941       	94.85131       	95.30218       	94.69105       	95.41191       	95.675705      	95.175446      	95.029785      	95.68077       	94.45402       	95.336235      	95.50158       	95.50035       	95.12667       	95.33704       	94.57715       	95.1789        	95.02079       	95.117836      	95.23933       	95.25194       	95.31783       	95.26379       	94.85686       	94.81884       	94.62847       	94.71953       	94.005844      	93.59386       	94.372         	94.30538       	93.3212        	94.16576       	93.5557        	93.19819       	94.037994      	94.337906      	93.56235       	94.59268       	94.12195       	93.565994      	93.626915      	94.423965      	93.979866      	92.763725      	94.3242        	94.12869       	93.11264       	94.17579       	93.350395      	93.84969       	93.25028       	93.80708       	93.157074      	93.2917        	94.811516      	93.6763        	93.58754       	94.71773       	94.30245       	93.673904      	94.32903       	94.41988       	94.01924       	93.050156      	93.753654      	94.32044       	93.48943       	94.08261       	
91.561806      	94.34513       	94.954475      	95.21742       	92.85872       	93.518105      	93.9558        	94.50279       	92.11113       	93.5345        	93.56531       	94.09804       	94.82671       	92.554436      	93.791245      	94.47974       	94.592606      	92.71367       	93.90815       	94.42675       	94.255936      	93.74649       	92.47253       	94.58028       	95.679436      	92.66127       	95.165695      	94.32752       	93.622475      	92.789215      	93.64986       	95.64141       	95.17226       	95.62105       	94.51081       	94.65881       	94.57275       	94.02107       	96.61989       	96.81482       	95.51172       	95.689644      	94.00156       	94.62533       	95.18266       	95.093704      	94.60835       	94.77034       	94.54004       	95.16143       	95.43566       	94.67008       	94.58786       	95.4991        	93.7701        	94.36451       	94.91703       	93.90656       	95.54542       	94.6525        	94.02621       	93.85844       	93.55759       	93.33477       	93.520615      	93.91251       	93.8885        	93.89162       	93.84419       	94.011856      	92.81744       	93.405685      	93.953445      	93.02018       	93.58165       	94.6777        	93.275955      	93.063484      	93.45257       	93.346436      	93.80232       	92.72122       	93.384346      	93.15144       	92.7825        	93.92176       	94.01625       	93.24          	94.07335       	94.9466        	93.51888       	93.53104       	94.967125      	93.71699       	93.38984       	93.47277       	93.63626       	93.14078       	93.30176       	94.40762       	
89.91206       	89.933304      	91.10514       	92.64399       	94.23567       	94.80676       	91.96054       	93.78385       	93.7718        	93.78535       	92.25798       	92.39918       	93.729546      	95.0981        	94.3557        	93.33605       	93.47438       	93.11417       	94.34158       	92.15766       	93.775314      	95.23311       	95.42054       	93.254326      	94.49838       	93.85433       	95.063545      	92.80734       	92.95313       	95.074554      	95.23587       	94.39429       	95.1573        	95.5926        	95.38014       	94.58831       	94.7284        	94.70291       	94.338905      	94.94119       	93.45654       	94.32697       	93.98365       	94.275154      	95.140396      	92.95955       	95.70961       	93.96273       	93.62453       	96.32783       	93.09961       	95.197334      	95.42099       	93.85673       	94.43572       	94.218956      	92.88789       	93.78681       	92.99541       	93.441414      	94.13936       	92.796555      	94.22978       	93.468315      	93.39639       	93.21618       	94.40172       	93.54617       	93.73276       	94.591415      	93.5861        	92.68519       	93.68119       	94.20142       	92.574715      	93.82652       	95.14391       	92.93437       	93.958115      	94.73469       	92.74897       	93.937904      	93.856094      	92.60369       	93.77742       	93.64632       	92.98763       	93.8047        	94.19512       	94.04265       	94.01232       	93.58614       	93.79899       	93.91474       	92.8603        	93.617424      	94.32138       	93.511734      	93.68919       	94.35368       	
93.24252       	93.118744      	93.81651       	94.8987        	90.16889       	92.38301       	94.484375      	94.343925      	93.96846       	92.02569       	92.79394       	95.53291       	95.58468       	93.60608       	93.15829       	92.89741       	95.370766      	96.16613       	93.35462       	94.44007       	94.80389       	96.228226      	93.609634      	94.961685      	94.64999       	94.654015      	93.55722       	93.30366       	95.68684       	96.38891       	94.309845      	95.845375      	95.44241       	95.30571       	94.945885      	95.11927       	95.52449       	94.990425      	94.77328       	94.784996      	94.710396      	94.133286      	94.29512       	95.23152       	94.136444      	95.262566      	95.642914      	95.38558       	95.93274       	95.2849        	95.70548       	95.12908       	95.73359       	95.86431       	95.1967        	95.19288       	95.69032       	94.16241       	94.52532       	94.93892       	94.23434       	94.04283       	94.91694       	94.33101       	93.97972       	94.295685      	94.82626       	94.17859       	94.770515      	95.74097       	94.038574      	93.911575      	95.66722       	94.82687       	94.51885       	95.625565      	94.31135       	93.97184       	95.380486      	93.39534       	93.68175       	94.64196       	94.021225      	94.31901       	93.76454       	94.303024      	93.900635      	93.482544      	93.91517       	94.62158       	93.19873       	93.68403       	94.21939       	93.22037       	93.77137       	94.53281       	94.350235      	93.535286      	94.10725       	94.43844       	
95.965416      	91.76247       	93.20157       	94.13175       	93.810776      	94.25361       	95.65813       	91.74939       	92.91235       	93.46654       	94.63675       	96.315025      	93.285065      	95.23858       	94.71912       	95.345055      	92.2369        	93.11602       	94.83204       	95.549995      	95.68872       	94.05441       	95.225395      	95.46678       	95.42261       	93.94656       	94.54073       	95.76065       	96.91565       	94.72168       	96.407104      	96.13101       	95.44676       	96.483475      	96.385544      	96.54643       	95.216934      	96.332726      	96.363         	96.281975      	95.72419       	95.2888        	94.753         	94.51611       	95.58953       	94.05639       	95.36978       	96.78388       	94.538956      	95.8776        	95.647575      	94.563995      	95.494385      	95.137985      	94.81233       	94.40275       	93.92479       	94.23532       	93.7553        	94.390144      	94.48332       	93.13358       	94.0419        	94.17355       	94.071815      	95.15287       	94.058914      	93.55295       	94.15101       	93.9178        	93.99659       	92.93165       	93.71553       	93.5099        	94.05537       	92.93834       	94.63643       	92.58357       	93.96407       	95.19414       	92.90902       	93.87212       	95.76587       	92.98673       	94.0304        	94.67551       	93.13581       	94.98355       	94.82774       	93.216805      	94.98986       	94.54166       	93.25461       	95.7181        	94.34264       	93.416046      	95.28137       	95.07657       	93.54101       	95.1739        	
92.34606       	93.14155       	89.653984      	89.60725       	91.81649       	94.22911       	94.381386      	92.959015      	90.90918       	91.32335       	95.27832       	95.57103       	93.28593       	93.07739       	91.99004       	95.12334       	96.37331       	93.62562       	93.238144      	93.38471       	95.89889       	92.02418       	94.72391       	94.44522       	93.53521       	93.23552       	91.46089       	95.48108       	95.72614       	94.87187       	93.95935       	93.88131       	94.60282       	92.57198       	94.40817       	94.417         	94.41976       	94.361206      	93.99272       	94.59565       	92.93908       	94.0953        	95.593216      	92.68725       	94.12401       	95.102905      	93.997345      	95.19154       	94.96021       	94.86885       	94.84017       	94.419876      	93.961494      	94.36053       	94.2964        	94.25952       	93.67803       	94.77381       	94.35741       	93.92387       	93.71655       	93.35451       	94.62359       	93.93725       	94.00342       	94.354454      	93.48216       	94.22226       	94.26077       	93.96992       	93.40385       	93.35962       	93.6494        	93.70151       	94.07104       	93.91094       	93.10029       	94.85909       	93.60835       	93.102165      	93.380806      	94.68321       	93.770744      	93.22855       	94.43184       	94.31977       	94.14259       	94.93448       	94.18867       	94.32938       	93.8062        	93.65201       	93.86117       	93.128784      	92.973335      	93.26561       	94.009476      	93.13366       	94.74107       	94.19054       	
93.73131       	93.72801       	94.043785      	93.9965        	92.46001       	92.043625      	93.398384      	95.26868       	91.05834       	92.86998       	94.03105       	94.547295      	94.97274       	91.852005      	91.958984      	93.222694      	95.02905       	92.31673       	93.53865       	94.47238       	93.766556      	95.55877       	92.9117        	95.188644      	96.699356      	95.71258       	95.5096        	95.533005      	95.343834      	94.916954      	95.47876       	96.16407       	96.41893       	94.687836      	95.30169       	96.277336      	96.15714       	94.8153        	95.03651       	94.69695       	94.27037       	94.36064       	95.123         	95.40577       	95.35022       	94.55291       	94.50875       	94.9795        	94.44587       	95.706635      	95.118095      	94.8221        	96.04494       	95.09204       	95.112885      	96.216995      	94.34726       	95.54992       	96.15355       	94.05367       	95.30069       	96.20961       	94.41328       	94.89461       	95.24891       	95.05709       	95.24544       	95.28679       	95.04363       	94.843376      	94.75248       	94.83781       	93.30279       	95.2361        	93.91945       	94.03882       	95.37131       	94.29633       	94.47569       	94.87153       	94.58296       	94.4985        	94.41673       	94.951004      	94.436295      	94.017784      	94.410126      	94.696075      	92.829414      	94.801636      	94.41386       	92.74969       	94.0619        	94.37088       	92.95179       	93.52343       	94.705475      	93.86951       	93.893814      	94.30846       	
93.69193       	93.77111       	91.10511       	92.06893       	92.940475      	93.8927        	94.82917       	92.46111       	93.73246       	93.88039       	94.58773       	95.39071       	91.933525      	94.26095       	95.05687       	93.88005       	93.627         	92.97114       	94.29858       	96.61951       	92.795845      	94.72534       	95.04883       	95.35027       	93.22082       	94.72303       	95.829666      	95.20429       	94.17482       	94.13818       	95.416534      	96.36832       	93.14487       	95.254745      	96.308395      	95.180016      	94.615845      	95.81033       	95.59087       	94.53285       	94.821846      	95.30495       	95.64624       	94.94627       	95.16014       	95.014145      	95.47012       	94.99863       	94.43071       	96.21319       	94.94889       	95.66952       	95.207726      	93.703285      	95.2169        	94.556114      	93.54517       	94.91353       	93.8911        	93.79684       	95.36377       	94.513145      	94.745346      	95.314735      	93.71095       	94.32335       	95.4036        	93.34201       	94.37735       	94.67709       	93.580376      	93.85943       	94.405136      	93.684204      	94.5542        	94.853806      	94.624344      	94.85233       	95.458336      	95.59061       	94.2715        	95.6563        	95.05607       	94.26386       	95.596405      	93.94949       	93.782646      	95.27058       	94.35194       	93.9375        	95.17383       	93.69514       	94.41694       	94.28479       	93.63343       	94.28491       	94.162186      	95.79623       	95.141495      	94.950714      	
94.52466       	92.82321       	93.441315      	93.38532       	92.44677       	93.82392       	95.49417       	91.7639        	94.498215      	94.377075      	93.960815      	91.794556      	93.220215      	94.091866      	94.271255      	92.049736      	92.61844       	94.54681       	96.532684      	93.350174      	96.013596      	95.808914      	95.01449       	93.74356       	94.40152       	95.26557       	95.78783       	93.511475      	94.61133       	95.89229       	96.604965      	94.18717       	96.00687       	95.14732       	95.129654      	93.786446      	94.033035      	95.51567       	96.10912       	93.87519       	94.45328       	95.27569       	95.40548       	94.58786       	95.39457       	95.31591       	94.245926      	95.7148        	95.83686       	95.21716       	96.23221       	94.72722       	94.91269       	95.21378       	94.66739       	94.695885      	95.236         	94.3208        	94.37454       	95.832436      	94.804214      	94.4578        	95.54306       	94.13334       	94.74443       	94.77149       	94.93526       	95.470955      	93.67859       	95.0505        	95.46582       	93.58412       	96.110054      	94.09791       	94.46475       	96.79147       	93.601         	94.56937       	95.18572       	93.506516      	94.7605        	93.65077       	94.29142       	94.037926      	93.67642       	93.98161       	92.9618        	94.983116      	93.73442       	94.312416      	94.84989       	93.75394       	94.948494      	93.518555      	92.39803       	95.47336       	95.58167       	95.54301       	96.28615       	94.39457       	
90.129074      	90.88383       	92.23073       	93.9278        	94.561356      	92.03571       	92.73642       	92.92581       	93.73071       	91.85052       	92.26801       	94.28586       	95.0527        	92.156166      	93.03033       	93.42835       	94.78837       	94.97092       	93.84021       	94.32166       	94.63577       	92.58203       	92.70833       	95.18871       	95.98764       	93.91194       	94.531746      	94.54286       	95.39741       	93.57704       	94.644135      	94.20511       	94.41446       	93.357216      	93.77584       	95.494125      	96.05073       	94.197426      	94.79985       	93.96483       	93.672104      	94.43232       	95.347496      	95.707466      	95.22794       	95.50651       	95.27658       	95.44576       	94.85991       	94.55131       	95.38364       	94.15052       	94.39289       	94.161385      	93.52912       	94.448395      	94.47204       	93.82468       	93.77652       	94.04748       	93.82906       	93.70407       	94.44142       	94.58072       	94.21131       	94.3543        	95.21484       	93.75539       	94.4944        	95.294106      	93.79332       	94.159744      	94.00244       	94.39007       	94.243095      	93.97554       	94.97058       	93.64765       	93.64589       	94.177376      	93.65071       	94.53388       	94.61781       	93.89802       	94.05111       	94.16379       	94.38722       	94.272026      	95.53543       	94.68495       	93.61164       	94.6582        	93.867355      	93.4174        	93.69349       	93.87135       	94.4071        	94.77478       	94.424286      	94.91356       	
94.09325       	93.72578       	93.0898        	93.27954       	91.65412       	91.988335      	94.14023       	94.51903       	93.53865       	94.61593       	94.48414       	93.13208       	93.18263       	94.582504      	92.71301       	93.70174       	95.659065      	92.1919        	94.72603       	95.57995       	95.05054       	94.072525      	94.31365       	95.01404       	95.47297       	93.684364      	95.18393       	95.28319       	93.7607        	94.75675       	95.25429       	96.0618        	93.53212       	94.696625      	95.806595      	95.53211       	94.08698       	93.89864       	94.03712       	96.44105       	93.50533       	95.05293       	95.44518       	94.73189       	94.92221       	95.770836      	95.74228       	95.16847       	95.96339       	95.60408       	95.208176      	95.88808       	95.48669       	95.224045      	95.76946       	93.85855       	95.1798        	94.0251        	94.0561        	95.46783       	93.326454      	94.87842       	94.4303        	93.17098       	95.04436       	93.3711        	94.062096      	93.3839        	93.55809       	94.34289       	93.3531        	93.18294       	95.17259       	92.97906       	92.94239       	94.6456        	92.6255        	93.985634      	94.56225       	93.20092       	93.89555       	93.82146       	94.44304       	93.48884       	94.83786       	93.78674       	93.384796      	94.68094       	93.64727       	93.17137       	94.8888        	93.27388       	93.94003       	94.861565      	94.214         	94.30372       	95.01355       	95.23467       	94.77595       	94.638916      	
92.75856       	93.65507       	93.816895      	94.26576       	92.2133        	93.07035       	93.978065      	94.59058       	92.51326       	93.88159       	95.019485      	92.74813       	94.757484      	94.66174       	93.34758       	94.73028       	93.83489       	93.93631       	94.13578       	94.23693       	95.417725      	93.614944      	94.538055      	95.03902       	93.64246       	94.465096      	94.64916       	95.63184       	93.68847       	95.12782       	97.234985      	93.96624       	94.9854        	94.81351       	95.230415      	94.030365      	93.721176      	94.93739       	95.99784       	93.787994      	94.93012       	95.10686       	95.28776       	95.4109        	95.94533       	95.14517       	96.16116       	95.62513       	94.74903       	95.95609       	95.1062        	96.05485       	94.94074       	93.93843       	94.472206      	94.58141       	94.424034      	94.79451       	94.91148       	95.17457       	95.574234      	95.00959       	94.69198       	95.88318       	94.681435      	95.04155       	95.62723       	95.421036      	94.31574       	94.330284      	95.82279       	94.60007       	94.343376      	95.854385      	93.77035       	94.1737        	95.23991       	93.22596       	95.3922        	95.6847        	94.970085      	94.9424        	93.74621       	94.36474       	94.19169       	94.857994      	94.10572       	95.05409       	95.26839       	94.34485       	95.922966      	94.35599       	93.79637       	94.67552       	94.59717       	93.64366       	95.228226      	96.4818        	93.266045      	96.13884       	
94.34612       	95.23005       	91.796715      	93.20615       	94.643265      	95.3805        	93.09856       	94.50057       	94.892204      	94.03228       	95.17448       	93.36364       	94.622665      	94.733444      	93.009834      	94.38323       	94.69441       	93.2749        	94.36902       	95.60377       	92.78296       	95.10226       	95.35902       	94.17846       	95.709404      	94.10823       	94.57866       	93.68796       	94.78798       	96.8085        	92.776535      	95.03224       	95.85043       	95.17909       	94.26636       	94.516525      	94.31451       	95.75404       	93.66328       	94.752884      	95.20727       	95.872734      	93.70737       	94.9783        	96.593636      	94.23384       	96.0528        	96.12607       	95.43128       	95.65149       	95.00552       	95.06458       	95.64795       	95.24324       	95.04802       	95.832016      	95.10043       	94.69007       	95.489365      	94.22379       	94.3345        	94.792496      	93.41635       	95.27347       	95.66643       	93.84838       	95.218056      	94.6382        	93.428314      	94.487915      	93.87805       	93.84542       	94.37275       	94.112595      	95.04576       	94.011955      	94.73536       	95.571915      	93.81287       	94.76457       	92.46225       	94.61661       	93.65417       	93.18742       	94.2375        	94.05995       	94.02569       	93.61527       	94.32662       	93.96412       	93.32079       	95.32225       	92.469574      	94.41509       	94.76297       	92.40333       	94.94069       	95.12439       	94.806625      	95.90215       	
94.1763        	93.70932       	93.04419       	92.28423       	94.615616      	93.3236        	92.67684       	93.79698       	93.89818       	94.30617       	93.69128       	94.15689       	93.74767       	93.74818       	94.53219       	94.30961       	94.601555      	94.651764      	94.06928       	94.68072       	93.259674      	93.85839       	93.94292       	93.22057       	93.74996       	95.19617       	91.23659       	94.026695      	95.61002       	93.76787       	95.13215       	93.96007       	95.382286      	92.596436      	93.2229        	96.528305      	96.53674       	94.10466       	95.08977       	94.50992       	96.16767       	93.87528       	94.77018       	95.94024       	95.98375       	95.31889       	96.21373       	97.318886      	95.30844       	96.66032       	95.74315       	95.85978       	95.21823       	94.382126      	94.852066      	94.372505      	93.882         	94.15218       	93.48735       	93.93696       	94.23866       	94.08499       	95.006355      	94.914215      	94.55911       	95.352776      	94.23071       	93.48788       	95.87513       	93.831245      	94.252525      	94.88171       	92.845894      	94.478775      	93.78174       	94.46446       	95.832344      	94.08019       	95.00721       	94.64259       	94.209076      	95.2373        	93.9941        	95.02215       	95.18262       	94.80873       	95.85186       	94.79045       	94.16931       	96.44693       	94.65099       	94.57547       	96.54526       	94.06409       	96.0746        	94.72429       	95.98489       	94.27809       	96.268265      	96.167366      	
92.29504       	94.104355      	95.20653       	91.59232       	92.96765       	95.77928       	91.73377       	94.53258       	93.57689       	92.19118       	93.9449        	93.17046       	93.56848       	94.338005      	93.55791       	95.38116       	94.91284       	94.271484      	94.48323       	94.87828       	93.25361       	94.685684      	95.18326       	93.52905       	96.15394       	95.305595      	94.68261       	94.74783       	93.68883       	94.21573       	93.11419       	95.20207       	97.161545      	93.42663       	94.545395      	94.04614       	94.74545       	93.46554       	93.24501       	93.69557       	95.07678       	92.604355      	93.39184       	95.65641       	96.02099       	95.495865      	95.24926       	94.2196        	95.02388       	93.63715       	93.51989       	96.064445      	91.994194      	94.19011       	96.01827       	93.54578       	95.23005       	94.06511       	95.27684       	94.05467       	94.86991       	93.891235      	94.719864      	93.874405      	91.877975      	94.48851       	91.87777       	96.271805      	93.16005       	90.594124      	96.202774      	90.634674      	95.744545      	91.4148        	93.55086       	92.89371       	91.58674       	95.65649       	92.25745       	94.2805        	95.77123       	93.28385       	94.743195      	94.093636      	94.394905      	93.77588       	94.04765       	93.97306       	93.912766      	93.51624       	92.95395       	95.1081        	92.668594      	94.50977       	96.433914      	93.83801       	95.23884       	95.186165      	95.260544      	95.42133       	
93.14795       	93.95626       	94.29817       	94.3497        	93.686104      	93.20897       	93.40087       	92.762825      	94.4134        	94.21532       	94.36324       	95.63732       	92.431854      	94.44503       	95.28293       	93.76649       	94.65975       	93.690544      	94.943436      	94.11084       	94.89265       	93.91283       	95.055466      	93.37529       	94.584175      	92.53167       	92.69029       	96.2764        	91.31758       	96.14742       	95.53209       	92.95971       	92.4379        	90.81115       	96.1576        	96.74113       	93.92274       	96.13005       	92.91537       	93.51913       	91.53539       	92.301506      	96.01287       	95.342514      	94.669685      	94.82327       	94.523346      	95.65697       	94.55432       	94.63935       	94.94141       	93.73792       	93.702675      	94.74482       	93.44671       	93.62287       	94.69681       	93.7859        	94.512436      	95.73425       	93.48417       	94.73539       	95.703896      	92.97124       	94.810005      	92.7553        	93.24409       	94.75644       	92.0005        	93.89233       	93.05456       	92.710075      	94.397575      	93.40479       	94.085396      	94.20166       	94.24936       	94.34456       	94.105675      	93.11546       	93.784096      	94.875244      	92.99344       	94.536995      	95.040886      	92.979576      	94.866806      	94.08526       	93.010544      	95.98547       	94.43053       	93.88083       	95.56977       	94.281586      	94.74541       	94.54053       	93.969376      	95.33271       	94.49907       	94.20023       	
94.77914       	93.80759       	92.51461       	92.71976       	94.99699       	93.68012       	93.893814      	94.79638       	92.506424      	95.71429       	93.42785       	93.22708       	94.296074      	92.864944      	94.38834       	93.45696       	93.965485      	94.35383       	94.79147       	94.10938       	93.99395       	93.080246      	93.05444       	94.03203       	92.974         	94.372314      	91.64998       	94.524734      	96.22694       	96.05954       	94.59993       	94.027695      	94.40213       	92.33809       	92.604866      	94.99626       	95.782646      	92.561516      	95.043335      	95.31448       	95.37048       	93.80436       	93.38036       	94.27292       	96.34452       	92.75538       	95.42433       	96.44986       	93.76678       	95.234116      	94.38069       	95.0056        	95.77988       	93.75204       	95.14226       	94.87438       	94.87796       	93.4983        	95.672035      	93.45635       	93.79811       	93.31721       	92.775345      	94.90637       	92.64985       	94.38981       	95.63806       	92.302925      	95.7227        	95.04227       	94.27234       	95.52531       	93.70988       	95.2888        	94.10503       	93.28264       	93.793945      	94.23957       	95.00331       	94.93766       	94.50758       	94.33419       	94.63134       	93.317505      	93.835625      	95.70405       	92.95645       	94.64095       	95.728386      	93.970955      	96.31511       	93.08          	93.24281       	94.993095      	92.483025      	96.53516       	91.30602       	96.46852       	97.290245      	94.89137       	
94.43673       	93.02775       	92.962555      	95.0293        	95.29733       	93.12167       	95.35025       	93.52784       	92.743324      	95.13696       	92.04257       	94.28743       	94.58358       	93.85432       	94.426445      	94.59496       	93.459526      	94.495865      	93.25328       	93.49255       	93.4169        	92.555664      	93.19279       	92.280304      	93.74304       	94.96314       	92.90104       	93.74476       	94.40067       	91.146416      	93.64137       	94.55018       	93.98803       	92.67831       	92.797745      	93.69685       	96.05111       	92.53663       	94.8091        	95.28276       	94.89624       	94.82581       	93.86979       	94.954575      	97.17371       	93.29064       	96.57948       	94.46364       	93.02349       	93.992355      	92.528656      	95.998276      	97.748985      	93.5977        	95.75284       	95.22023       	94.6097        	95.47423       	94.04466       	95.514366      	95.14167       	94.24488       	94.490616      	94.263435      	94.360886      	94.652954      	93.87608       	94.20162       	94.76955       	95.18458       	92.88719       	95.22384       	95.51938       	93.54554       	95.07802       	92.79894       	94.39665       	92.23698       	92.72922       	95.618484      	94.738235      	95.247406      	95.2987        	93.34493       	95.25489       	93.63526       	94.38274       	95.95613       	95.80342       	94.810905      	94.58914       	93.84621       	93.8091        	94.71066       	93.82236       	93.55387       	94.74243       	94.0573        	94.60082       	94.49992       	
92.62699       	93.84146       	94.48357       	94.19964       	93.083466      	93.65911       	94.95016       	92.96872       	94.05778       	93.348755      	92.546394      	94.20093       	95.03019       	92.14877       	94.26098       	91.87427       	94.98902       	96.09492       	93.48572       	95.5206        	91.32329       	94.55633       	94.65195       	93.63545       	93.97871       	93.29281       	94.20814       	92.32405       	92.86787       	94.86174       	96.14552       	91.54871       	92.88325       	93.44835       	94.03365       	95.517456      	91.09025       	94.01204       	95.893036      	94.97526       	94.54494       	93.96144       	93.8884        	96.396904      	97.56261       	93.946884      	95.68017       	94.68826       	94.24071       	92.94868       	91.93278       	94.68619       	95.624954      	93.73668       	95.514984      	94.135345      	93.61666       	93.99639       	94.40229       	95.44531       	94.0585        	96.04463       	95.307236      	95.09387       	93.3276        	94.61035       	96.16718       	92.52105       	95.35275       	93.62436       	93.53221       	94.58098       	91.47281       	95.613335      	96.29419       	93.37382       	94.991325      	92.906784      	93.463615      	96.05195       	95.257416      	95.03273       	94.86297       	93.43609       	94.56883       	93.383095      	93.88171       	95.98105       	95.58943       	95.065765      	95.27173       	95.04512       	95.4598        	95.33857       	95.38448       	95.570366      	96.93133       	95.91334       	96.33724       	96.16717       	
93.549545      	93.33233       	90.76114       	90.48893       	92.6435        	94.67932       	92.02348       	92.15199       	93.69951       	91.609         	92.51667       	94.10902       	93.63555       	93.3123        	94.01775       	92.91866       	93.132645      	92.99323       	93.24429       	92.854195      	92.46134       	91.54851       	93.58272       	90.81543       	92.59805       	94.56034       	94.55879       	92.65826       	93.52794       	94.285774      	94.66212       	89.40129       	90.83337       	91.864975      	93.76413       	94.882614      	90.0799        	91.27156       	91.409584      	93.824776      	95.7616        	91.41712       	93.082886      	92.87431       	94.113884      	96.989365      	91.83084       	94.95843       	94.023735      	94.39384       	95.58454       	92.98396       	93.74977       	95.11804       	95.32117       	94.157074      	94.958694      	94.50911       	93.12736       	94.21359       	94.24344       	94.289505      	92.67973       	93.05214       	93.8972        	94.766         	92.042274      	94.01202       	93.99646       	93.28145       	92.40431       	93.51314       	94.71139       	94.2345        	92.79739       	92.220024      	94.46179       	94.48223       	93.4463        	93.29781       	93.28845       	96.12784       	96.18051       	93.99303       	96.10095       	94.01059       	95.17262       	93.195595      	94.23985       	97.02763       	95.49923       	95.59279       	95.299034      	94.82149       	95.28308       	94.21773       	94.003914      	94.97198       	95.32426       	94.3234        	
96.55345       	95.80643       	93.54649       	91.69629       	93.848885      	96.23096       	94.10327       	93.692375      	96.60129       	95.04009       	93.09004       	95.85806       	93.57938       	94.50368       	95.353836      	94.286934      	95.34949       	93.95067       	93.65266       	93.66637       	93.916145      	94.2776        	92.55336       	93.52815       	94.10798       	95.13789       	92.329865      	94.484055      	94.62605       	90.70988       	89.94559       	90.221115      	94.78444       	95.27466       	94.97758       	91.853516      	92.204765      	94.29109       	96.98389       	91.04428       	93.82679       	94.9862        	94.99126       	97.18065       	92.05246       	94.15625       	95.78486       	95.18138       	95.42465       	93.12044       	93.65667       	95.850655      	96.17868       	92.88405       	94.32144       	96.160904      	95.99742       	94.27963       	94.94964       	94.07985       	94.64559       	93.09239       	95.075775      	97.333374      	92.87464       	95.608315      	95.117096      	94.49245       	93.400925      	92.96774       	94.439865      	95.75846       	92.43688       	93.92146       	95.839355      	95.07095       	94.814606      	94.76339       	94.8658        	95.29555       	97.054565      	92.80063       	95.08138       	96.02494       	95.30968       	96.53093       	93.245926      	95.51154       	97.06139       	95.73912       	96.19221       	95.05          	93.96657       	95.91307       	93.89098       	95.564545      	95.709854      	95.52601       	95.53894       	96.172356      	
92.16607       	90.68825       	92.880844      	96.07699       	95.49447       	91.679985      	93.49983       	96.11282       	91.978226      	94.90862       	95.10161       	91.422325      	93.24391       	95.94014       	91.61171       	95.54924       	92.632576      	94.29021       	93.461555      	93.33528       	92.55749       	92.85202       	89.93823       	91.98474       	94.61647       	93.20159       	92.03524       	91.33615       	91.50755       	95.52751       	88.89269       	92.32113       	93.84521       	93.037544      	91.87782       	90.6705        	93.136795      	96.12576       	95.06917       	92.91151       	92.58035       	93.0995        	96.89599       	97.20241       	93.86929       	94.39755       	93.18898       	95.60489       	96.88924       	93.130486      	95.2419        	95.19888       	95.30401       	93.97693       	95.09268       	95.3359        	95.32706       	93.358345      	93.863594      	95.22126       	96.45926       	93.72116       	95.760635      	94.81568       	94.626816      	93.65156       	92.98192       	95.55888       	96.18462       	94.140785      	95.08487       	93.16774       	95.04631       	91.34325       	93.43641       	95.86319       	94.84692       	94.10878       	94.01826       	93.59574       	95.477585      	95.85107       	93.18096       	94.82467       	94.6278        	94.44711       	96.31417       	92.99077       	94.731094      	96.10082       	95.3886        	95.53578       	95.752335      	94.26486       	94.6186        	93.72419       	94.22452       	95.32476       	95.308975      	94.476456      	
90.6779        	91.48926       	94.07836       	95.46807       	93.80834       	91.496666      	93.88688       	94.00847       	91.93372       	94.1086        	95.28084       	92.68535       	93.814156      	95.370895      	93.80289       	94.77139       	94.76233       	93.836235      	94.95006       	92.81051       	94.128586      	94.99138       	93.006805      	94.561386      	95.548584      	91.68011       	94.81447       	95.16618       	94.99161       	92.52295       	93.48709       	94.94535       	94.62821       	92.20303       	95.4626        	95.88583       	92.43192       	93.80708       	94.307945      	96.319534      	98.06259       	93.88199       	95.760994      	94.4944        	95.8857        	98.62253       	93.29468       	96.61165       	96.33963       	95.49666       	95.3824        	94.95894       	95.300865      	94.693726      	94.57144       	95.011734      	96.32404       	93.300125      	95.22595       	96.64379       	95.31121       	95.77429       	94.81344       	94.629875      	96.82237       	91.27156       	95.082565      	95.63016       	93.928696      	94.07996       	92.83859       	95.071396      	96.97456       	92.71565       	94.41652       	94.71449       	95.22575       	96.0164        	94.35871       	94.24419       	93.88055       	96.65193       	96.249756      	95.28716       	95.011116      	93.30118       	97.221664      	98.18611       	95.044525      	98.174965      	94.33658       	95.05663       	92.55556       	94.53716       	97.40773       	94.64279       	92.97063       	94.34136       	93.05153       	96.410416      	
91.25382       	91.27787       	92.88364       	95.232864      	94.40792       	91.934586      	94.31792       	95.152435      	92.95064       	93.47409       	94.68417       	94.29301       	93.8368        	95.55783       	94.72331       	95.33351       	94.19294       	95.106804      	94.081535      	93.796875      	92.80464       	92.97803       	95.58675       	90.786575      	93.02353       	94.72835       	93.575386      	91.35804       	91.57861       	93.73968       	94.8624        	92.42997       	92.46281       	91.66318       	93.828575      	90.436325      	94.586075      	95.58576       	93.719124      	93.51969       	91.47071       	95.22847       	98.642624      	94.75715       	95.679825      	92.492836      	94.420616      	98.91908       	97.429         	96.804306      	95.6167        	93.80787       	95.560715      	93.188484      	95.45106       	97.01794       	93.20295       	96.10468       	95.44809       	94.72689       	94.17796       	94.64432       	95.30664       	93.3222        	92.97941       	93.09224       	95.39437       	92.000175      	93.942986      	95.143555      	94.40164       	95.64776       	91.46434       	94.05884       	97.56796       	94.45108       	95.465225      	93.466385      	94.45705       	97.641106      	97.15511       	96.20067       	95.02465       	94.17501       	96.685394      	97.42029       	95.302216      	96.73739       	95.491905      	95.87464       	95.87808       	93.81041       	94.23101       	96.32457       	94.46335       	96.04875       	95.83442       	93.54752       	95.34758       	91.65885       	
90.75053       	92.712944      	94.93316       	94.998604      	92.64985       	93.17594       	95.386475      	93.27292       	94.91398       	94.58273       	93.9828        	94.25142       	95.247574      	93.95239       	95.30176       	95.71399       	94.20737       	95.880905      	94.42396       	94.58444       	96.5831        	91.556305      	95.09362       	94.57288       	93.084465      	90.644165      	90.621445      	93.85567       	95.47546       	91.50682       	93.468         	94.03301       	90.822525      	91.45513       	93.10936       	94.517006      	90.7184        	93.36004       	96.22397       	95.40764       	93.379486      	92.63007       	92.47232       	96.3082        	96.4589        	93.73628       	94.14543       	92.6173        	94.575966      	92.29122       	92.339615      	96.44758       	95.28725       	95.185165      	95.133736      	92.37626       	95.58558       	90.44518       	95.02044       	97.852875      	94.81832       	95.43575       	92.43946       	93.36271       	96.896355      	90.8801        	94.43769       	94.059204      	93.11515       	93.49645       	92.848915      	94.67221       	96.7529        	93.131645      	95.62089       	94.45552       	93.32744       	93.29033       	92.75593       	95.274605      	96.30195       	94.584175      	94.7434        	93.216034      	93.88762       	96.910805      	95.34919       	94.65089       	94.7868        	94.1397        	95.73681       	96.58094       	94.87302       	95.08723       	95.4565        	94.245605      	93.58313       	93.2032        	95.11706       	94.39991       	
93.71671       	90.92726       	92.794685      	96.52634       	94.48047       	91.88809       	95.96952       	95.58451       	91.872444      	96.13375       	93.83785       	94.402626      	95.23638       	95.0027        	93.8859        	94.09624       	94.618904      	94.224         	94.08945       	93.95166       	94.1226        	94.04499       	93.22087       	92.57987       	91.7857        	94.839676      	96.72816       	91.446945      	93.99433       	92.501144      	91.632706      	90.31869       	92.52292       	96.642784      	90.305336      	94.83112       	95.29777       	93.79321       	93.070915      	92.20041       	95.29896       	97.56756       	96.23591       	94.40975       	94.59527       	94.213554      	97.16996       	93.03214       	95.04725       	96.36699       	95.16283       	94.95495       	94.94059       	95.051445      	95.54024       	94.18227       	94.79251       	96.05844       	92.9982        	94.81348       	95.83781       	95.81621       	92.616295      	93.7515        	94.32982       	94.52631       	92.476776      	92.594124      	95.3991        	96.92631       	92.75725       	95.52235       	94.51907       	94.52678       	92.98917       	92.094185      	96.0739        	96.075485      	94.79891       	94.49141       	94.830315      	95.2379        	96.168465      	96.84486       	94.61685       	95.50313       	94.49377       	95.3962        	96.626724      	93.59358       	96.48129       	95.66186       	94.22198       	95.23483       	92.19015       	95.932495      	96.83107       	92.94626       	95.058556      	93.20909       	
91.952644      	94.53525       	94.91768       	93.2223        	92.06888       	93.74467       	94.35544       	92.04088       	93.76956       	94.09041       	93.20059       	94.82874       	94.72382       	94.516975      	95.035416      	94.96011       	93.944336      	94.61573       	93.31246       	93.72836       	92.08739       	94.0816        	96.11508       	91.2213        	94.83682       	94.73754       	92.87659       	90.25882       	89.949814      	95.33105       	88.56447       	93.04603       	93.67843       	92.71654       	90.48523       	91.286514      	94.98279       	95.95135       	95.65324       	92.40853       	94.25522       	96.65675       	95.94247       	94.52308       	93.55467       	93.883224      	96.46277       	97.11038       	94.56802       	96.51721       	94.094986      	94.51416       	93.891884      	93.88484       	96.99399       	93.07149       	95.185394      	95.709305      	94.69832       	93.688934      	93.57262       	94.64259       	95.28397       	93.249756      	92.02202       	93.58381       	94.90871       	91.8586        	95.92126       	94.25185       	93.732025      	91.22283       	92.01867       	96.78723       	96.33434       	94.61201       	93.368774      	91.41631       	96.212494      	89.81691       	93.94621       	95.54097       	93.120155      	94.82963       	96.65236       	93.53449       	94.73625       	93.61059       	94.06078       	95.0464        	94.1664        	94.2703        	92.89937       	95.55262       	94.919586      	95.238266      	94.07813       	93.25434       	95.29308       	91.93504       	
94.39481       	91.90986       	92.01498       	93.8191        	95.16911       	93.37637       	93.4899        	95.3411        	94.607956      	93.338005      	95.85859       	94.35884       	93.31048       	95.65974       	95.79994       	94.52101       	96.19268       	92.70206       	95.64818       	92.5855        	93.0153        	92.13361       	92.96509       	97.538704      	90.95219       	95.36629       	93.28971       	92.5674        	90.42347       	91.564384      	95.53903       	89.31942       	92.892         	93.39106       	94.00111       	95.34173       	91.25004       	94.10202       	93.69343       	95.56151       	90.94203       	93.69974       	96.86297       	94.930435      	94.603806      	92.60253       	92.58159       	98.24096       	97.05973       	95.59428       	95.65882       	93.98767       	96.45334       	93.359985      	94.41171       	96.06718       	95.874016      	94.97366       	95.63046       	95.67138       	93.34413       	94.66321       	94.40983       	94.43324       	91.64966       	92.30415       	95.50888       	95.849556      	93.124275      	95.03292       	94.93041       	92.74346       	93.18226       	93.86453       	95.579704      	96.47591       	92.83418       	95.19365       	94.861984      	94.75844       	96.593346      	92.581345      	96.14368       	96.40683       	95.09964       	96.54566       	93.542984      	96.00778       	97.15492       	95.95468       	95.49548       	94.922005      	95.03287       	96.212654      	96.34737       	94.859726      	95.30595       	95.83074       	94.81784       	96.20181       	
93.39946       	94.670166      	94.626884      	92.94044       	93.999435      	95.54827       	92.36754       	94.52827       	95.43513       	93.84257       	94.74861       	94.686295      	93.98209       	94.54512       	93.268814      	93.99461       	92.73036       	94.6837        	93.05696       	95.61035       	96.11998       	93.859024      	95.81239       	94.71862       	94.29549       	93.09257       	92.032524      	90.17025       	89.679306      	94.70201       	96.29076       	90.75577       	92.27141       	92.37814       	95.0418        	90.02274       	92.44853       	94.21187       	95.510445      	92.14343       	93.93503       	95.18384       	94.803116      	96.07704       	91.718216      	94.63854       	96.77156       	94.718124      	94.12391       	94.755875      	94.112274      	96.27071       	93.66439       	94.6647        	95.72          	95.94838       	94.01999       	96.19139       	96.41088       	94.41649       	94.825264      	94.34321       	94.542         	92.23654       	92.16771       	94.49539       	95.25241       	92.05665       	94.40854       	95.19011       	92.21965       	93.48518       	93.11724       	95.007095      	96.54182       	92.10568       	94.73909       	94.338394      	94.12389       	91.92123       	91.96168       	93.87361       	96.0771        	94.55864       	94.86595       	92.797066      	93.11574       	96.00749       	96.33992       	93.738785      	94.510124      	93.99154       	94.96321       	96.3632        	94.66291       	94.261734      	94.95666       	94.952324      	94.75602       	94.68758       	
90.75445       	94.506584      	95.515465      	91.87834       	91.150154      	96.0714        	95.41737       	90.698235      	96.85973       	93.759224      	91.65697       	97.46475       	93.221756      	93.313286      	97.21309       	92.120834      	95.58337       	92.22257       	91.61003       	93.510345      	92.815216      	94.49627       	92.24765       	93.949554      	95.60584       	92.10188       	93.075386      	93.31579       	94.593185      	90.710236      	93.81004       	94.2617        	91.247604      	90.82854       	91.020294      	95.01421       	88.86968       	91.78861       	94.88573       	92.73813       	94.43407       	92.3131        	92.09233       	96.97437       	95.917145      	93.68883       	94.41802       	92.690956      	96.17951       	92.332535      	94.60136       	94.98771       	93.77215       	92.89299       	93.12416       	95.6003        	96.12141       	93.82727       	95.48051       	92.781334      	94.67737       	91.6832        	94.679985      	97.01592       	91.64711       	95.41524       	93.54155       	93.02939       	91.79477       	92.10863       	95.22138       	95.7186        	92.727005      	93.69066       	93.582634      	95.51529       	92.85284       	95.04499       	93.502914      	95.64021       	97.82264       	93.059296      	97.42833       	95.2457        	93.99024       	97.43692       	91.785324      	96.17562       	95.4873        	93.20846       	95.730095      	92.24768       	95.55931       	96.96997       	93.47712       	95.08067       	93.24498       	95.73656       	95.39731       	95.15675       	
91.166466      	89.96717       	92.00833       	94.29719       	92.131874      	91.32004       	94.26301       	90.49566       	94.33749       	93.27585       	91.08304       	94.487076      	92.61929       	92.46493       	94.204475      	92.25807       	92.84954       	94.23497       	93.74829       	94.34122       	94.696655      	92.67227       	94.43566       	93.01188       	92.76356       	92.33089       	92.320816      	93.961845      	89.75902       	92.60192       	94.99632       	89.47948       	91.42151       	92.30455       	93.53594       	90.2591        	91.14759       	93.46342       	95.622314      	94.40777       	95.3457        	96.489655      	95.82767       	94.78527       	93.545235      	93.29972       	94.563644      	95.289276      	92.97424       	95.05253       	95.0621        	92.729645      	94.09012       	93.89798       	93.70833       	94.693794      	93.93865       	94.08381       	91.90794       	92.98112       	95.115555      	94.78724       	92.99881       	93.996796      	93.41935       	94.02111       	91.22517       	92.37406       	95.65756       	96.07891       	92.28756       	93.09732       	93.27819       	94.3785        	92.18754       	93.389755      	94.024155      	94.63573       	91.5005        	92.14345       	95.69332       	95.80883       	94.166534      	93.58842       	93.223724      	95.15129       	96.371994      	93.97228       	94.77868       	94.06063       	94.03425       	95.841385      	95.39401       	94.33422       	94.85951       	93.64734       	94.69162       	96.06079       	92.5052        	94.47321       	
93.234116      	94.738396      	95.137085      	94.945175      	94.555244      	95.19377       	93.04378       	95.38623       	93.31544       	95.34831       	96.41546       	93.353165      	94.656624      	96.57279       	93.10026       	95.18959       	92.91352       	94.286125      	96.48296       	93.85294       	95.73489       	93.99566       	95.090096      	94.82263       	94.17396       	93.59937       	93.43287       	90.64287       	92.45761       	95.95264       	97.11523       	93.38431       	94.45445       	93.33879       	91.99156       	92.60376       	94.46269       	93.00432       	93.80572       	95.74391       	95.89686       	96.17598       	96.01602       	93.925156      	95.15941       	95.05728       	95.33454       	94.15054       	93.604355      	96.736374      	96.52075       	94.54505       	97.304405      	94.928795      	97.05201       	95.48397       	94.74264       	95.71887       	94.25609       	95.4218        	96.860634      	94.53433       	95.1086        	94.775314      	96.13358       	93.10261       	94.689606      	95.232925      	95.08405       	93.70224       	93.75212       	94.87066       	95.9748        	92.24824       	94.30153       	94.305695      	92.29663       	93.685005      	94.00635       	94.73854       	95.84128       	93.76154       	94.37039       	94.30376       	96.378204      	95.36097       	94.77079       	93.91345       	93.63611       	95.4381        	95.34162       	95.325836      	95.20656       	94.04591       	95.67775       	92.96081       	94.67512       	95.07905       	94.98886       	95.26432       	
93.656364      	92.73538       	92.65324       	92.559006      	93.97529       	93.320625      	93.507         	93.61842       	92.85194       	94.21068       	94.22569       	93.23508       	94.71266       	93.14598       	93.77656       	94.64676       	93.07264       	94.512         	95.353325      	93.607574      	95.51607       	94.17018       	94.972466      	93.21369       	94.44858       	93.96782       	92.50734       	92.67114       	92.574936      	91.70051       	91.1825        	93.350655      	95.52791       	92.41934       	94.671135      	94.933174      	93.192825      	94.00927       	95.34757       	95.93782       	95.634186      	93.39286       	92.442635      	93.68574       	95.928635      	95.32589       	93.90976       	94.596794      	94.36067       	95.380585      	93.78284       	94.3533        	95.20405       	93.91968       	95.07335       	95.20528       	94.33648       	94.292206      	94.602776      	93.779335      	93.802734      	94.453705      	91.79671       	93.63334       	93.781654      	93.864555      	92.42535       	92.925896      	93.65941       	95.59207       	92.049545      	93.84118       	94.8924        	95.14355       	92.684326      	94.95251       	93.96537       	93.44258       	93.75256       	94.197556      	95.209785      	95.70075       	93.29677       	94.96247       	94.77182       	94.161385      	94.6371        	93.51001       	93.71094       	94.83623       	95.79814       	93.83379       	92.88852       	92.73865       	93.31102       	94.76568       	93.29912       	92.83784       	94.11484       	94.12169       	
