# www.neaspec.com
# Scan:	 	AFM
# Project:	 	20251007_PS
# Description:	 	
# Date:	 	10/07/2025 11:26:44
# Scanner Center Position (X, Y):	[µm]	49.99	50.01	 
# Rotation:	[°]	0	 	 
# Scan Area (X, Y, Z):	[µm]	5.000	5.000	0.000
# Pixel Area (X, Y, Z):	[px]	100	100	1
# Averaging:	 	1	 	 
# Integration time:	[ms]	5	 	 
# Laser Source:	 	4.5-15 µm nano-FTIR laser
# Detector:	 	R
# Target Wavelength:	[µm]	7.502	 	 
# Demodulation Mode:	 	Fourier
# Tip Frequency:	[Hz]	241,340.500	 	 
# Tip Amplitude:	[mV]	45.700	 	 
# Tapping Amplitude:	[nm]	83.227	 	 
# Modulation Frequency:	[Hz]	0.000	 	 
# Modulation Amplitude:	[mV]	0.000	 	 
# Modulation Offset:	[mV]	0.000	 	 
# Setpoint:	[%]	79.75	 	 
# Regulator (P, I, D):	 	4.206850	8.625812	1.000000
# Tip Potential:	[mV]	0.000	 	 
# M1A Scaling:	[nm/V]	0.426	 	 
# M1A Cantilever Factor:	 	1,000	 	 
# Q-Factor:	 	487.4	 	 
# Version:	 	2.1.11536.0
87.95017       	91.7413        	91.75127       	82.82782       	72.54766       	79.897484      	77.87058       	77.87512       	79.13186       	77.26196       	80.67858       	76.21224       	78.19413       	92.086975      	91.87716       	90.151276      	92.20513       	88.61655       	80.35841       	80.05324       	78.02532       	76.978516      	91.10618       	92.21592       	91.97644       	88.761         	92.36762       	92.15048       	85.64386       	92.54689       	92.38342       	86.69157       	92.61109       	92.478424      	88.97821       	78.28082       	77.24737       	79.78425       	91.42233       	92.795         	92.65538       	92.4546        	89.04748       	92.80104       	92.683754      	92.519455      	87.5071        	92.73646       	92.6746        	92.52815       	88.16097       	92.70903       	92.611         	92.42972       	90.20862       	92.421585      	77.83297       	77.767456      	78.14684       	80.31819       	75.37962       	77.51816       	79.78115       	78.77612       	72.7859        	78.032265      	90.89293       	88.0431        	92.03554       	87.13173       	87.534424      	79.605995      	79.9538        	77.943214      	78.00467       	77.11908       	77.675964      	77.76904       	77.41048       	77.906296      	74.995056      	76.443924      	88.75691       	92.46464       	86.23728       	92.57728       	92.35047       	91.959015      	92.37099       	81.024414      	92.50281       	90.372444      	92.67394       	92.47221       	89.583786      	92.674866      	92.456276      	80.35604       	92.41498       	80.73653       	
77.70977       	75.79581       	75.07633       	75.704         	76.815384      	77.45913       	78.49397       	79.65434       	77.7176        	77.209816      	78.102486      	77.80348       	79.0342        	79.07327       	91.75878       	91.79536       	91.50002       	92.01237       	88.09886       	91.72299       	87.0744        	91.57941       	91.569984      	83.09115       	92.3198        	92.12154       	88.074875      	92.41321       	92.31868       	86.18614       	92.39155       	92.5189        	87.27885       	92.40371       	92.577515      	92.38728       	88.82039       	92.517166      	92.302956      	92.19558       	71.6732        	92.73128       	92.64347       	92.49728       	89.85149       	92.76334       	92.667854      	92.53284       	89.73318       	92.69662       	92.63327       	92.48644       	79.38295       	92.52481       	89.38609       	76.28459       	78.109276      	79.126945      	79.834564      	74.44373       	77.42283       	76.99109       	77.67087       	78.14023       	78.48534       	72.017136      	92.417076      	79.15492       	89.72718       	78.2103        	75.70777       	75.97168       	78.01955       	77.57324       	78.79448       	76.73488       	79.44912       	76.936874      	78.22213       	75.58546       	84.486206      	92.396774      	87.87448       	92.49188       	87.900314      	92.5379        	92.3479        	90.89217       	92.38126       	87.41062       	92.55142       	89.82807       	92.71652       	92.5436        	74.96246       	92.70454       	92.50109       	77.1377        	74.91251       	81.21603       	
79.24325       	78.14617       	78.06416       	74.051834      	75.488815      	79.85805       	79.09984       	78.498184      	78.212456      	79.33118       	77.84778       	78.972435      	78.63802       	77.14996       	91.67786       	91.69272       	85.8041        	92.18772       	87.50809       	91.96226       	92.089325      	86.546135      	92.313545      	92.12719       	87.98395       	92.34835       	92.21811       	88.56126       	92.55821       	92.42852       	87.24963       	92.349266      	92.52691       	85.78224       	92.59288       	92.65047       	92.49696       	88.36081       	92.79          	92.65555       	92.49088       	86.393906      	92.77097       	92.67938       	92.5369        	87.15722       	92.55835       	92.691956      	92.555855      	90.35115       	92.44965       	92.59501       	92.43785       	88.55651       	92.54172       	88.298065      	77.1224        	78.085075      	80.216         	72.54733       	76.73795       	76.37068       	78.80579       	78.74966       	77.03038       	77.42062       	76.72718       	77.82761       	77.18068       	77.884964      	79.97683       	77.31142       	79.76203       	78.48498       	77.4162        	77.40644       	74.26096       	78.41723       	79.40503       	77.00901       	76.78121       	85.65138       	92.65195       	92.40426       	81.90626       	92.5857        	90.069786      	92.55965       	92.42652       	82.85255       	92.82254       	92.65538       	86.247986      	92.29021       	92.71411       	92.517654      	91.4598        	92.7087        	92.52483       	81.0855        	
79.80361       	76.318855      	73.96454       	76.80605       	76.31074       	78.55136       	77.934525      	77.59244       	79.39915       	78.504234      	78.43115       	76.96401       	76.19283       	75.231384      	74.62692       	92.048294      	91.97601       	85.416405      	92.16686       	91.93829       	86.09323       	92.19572       	91.978195      	87.671295      	92.13151       	89.575806      	92.01177       	92.14232       	89.13672       	92.44421       	92.2965        	88.745224      	92.4694        	92.411896      	88.29752       	92.40349       	92.684875      	92.5345        	90.032265      	92.708954      	92.70013       	92.55159       	92.34544       	90.83436       	92.585205      	92.37802       	92.32912       	81.25688       	92.7305        	92.60225       	92.42626       	90.19543       	92.55188       	89.12315       	92.35439       	92.39978       	75.58618       	87.307045      	78.48785       	75.52617       	78.5163        	76.3201        	79.08723       	76.129105      	76.77061       	77.83072       	75.62394       	78.35876       	81.3088        	75.575005      	76.222946      	79.65725       	77.42124       	78.588486      	78.88059       	78.98952       	76.87433       	80.24178       	77.08301       	75.19521       	78.124855      	76.95059       	92.58807       	92.496666      	75.696434      	92.58449       	89.90005       	92.47272       	92.47586       	78.674965      	92.655945      	91.28608       	90.993286      	92.65273       	87.68998       	91.961845      	92.62252       	86.87093       	92.2736        	83.83419       	
79.87172       	77.47711       	76.215805      	76.92398       	79.07519       	77.737686      	77.52362       	78.591576      	78.83541       	79.037926      	78.41086       	76.95488       	78.34231       	78.09926       	76.58319       	75.36876       	75.06977       	91.89903       	86.23822       	91.96275       	87.04708       	92.11992       	85.85287       	92.18483       	92.05023       	85.774025      	92.21558       	86.475975      	92.01429       	92.37749       	86.89975       	92.28175       	92.41547       	88.23187       	92.56501       	92.55777       	92.37832       	73.52848       	92.74818       	92.64442       	92.43803       	89.22574       	92.742836      	92.63462       	92.46463       	89.36137       	92.653046      	92.572         	92.36649       	91.48026       	92.54316       	86.668755      	92.39892       	92.40558       	75.84505       	86.8465        	91.22432       	77.40474       	77.86521       	79.892395      	78.04862       	77.220634      	76.053566      	76.97993       	78.309654      	76.28843       	78.79856       	77.65974       	79.23787       	79.73766       	80.46559       	77.9039        	79.46746       	79.6123        	77.217995      	80.092606      	77.764694      	81.77275       	76.58117       	79.454895      	76.99437       	78.02741       	83.104385      	92.50866       	88.82311       	92.61012       	88.45887       	92.32462       	92.538185      	77.34958       	92.65374       	89.71597       	92.59747       	92.571144      	82.106476      	77.384674      	75.007805      	79.46023       	81.678185      	76.647125      	
78.8708        	77.951645      	76.147896      	74.754684      	76.10658       	77.83014       	80.79835       	76.284035      	79.56525       	78.529884      	79.370026      	79.18282       	79.12889       	78.44707       	80.015816      	77.427605      	77.90865       	76.78791       	77.88474       	78.13195       	77.22307       	79.860146      	91.82689       	88.14835       	79.11156       	77.03445       	78.02608       	91.2058        	92.39164       	88.51995       	91.35724       	92.24019       	88.245735      	92.54559       	92.46421       	92.281075      	90.793686      	92.61243       	92.4527        	89.76379       	92.56315       	92.48419       	92.33584       	87.55207       	92.54317       	92.39687       	89.891205      	92.40135       	92.40907       	87.40402       	92.509285      	92.427         	89.74228       	92.450745      	89.90446       	92.26664       	79.41764       	78.117035      	79.59081       	80.23008       	77.36996       	77.838455      	77.32502       	75.0291        	77.32613       	78.03481       	78.08253       	79.03869       	77.770584      	78.71987       	77.634445      	77.96838       	77.32677       	78.8569        	79.9802        	79.87794       	77.45641       	80.23305       	79.350815      	78.22402       	79.075714      	79.73065       	76.60698       	76.54487       	92.61682       	90.18602       	92.15192       	92.52971       	88.69513       	92.66967       	92.42693       	91.78128       	92.5364        	78.008224      	79.10797       	77.48257       	77.7287        	77.310036      	77.10684       	78.6549        	
79.776886      	78.49331       	74.76588       	75.23997       	77.676384      	78.67831       	78.62485       	77.26011       	79.15716       	79.70506       	79.257454      	78.70163       	78.54143       	79.2635        	77.669876      	77.43607       	79.268105      	77.84115       	78.536575      	76.50227       	78.07483       	78.1366        	77.88718       	74.92205       	77.93201       	78.8537        	78.96222       	77.09088       	92.01417       	91.90287       	86.19781       	92.41409       	92.25734       	88.31634       	92.60614       	92.49357       	92.078094      	92.43828       	92.57024       	92.44693       	79.85382       	92.62264       	92.48489       	90.20691       	92.62967       	92.51356       	92.338036      	90.92152       	92.47369       	91.10647       	91.49893       	92.4377        	86.58815       	92.425385      	89.62356       	79.42262       	78.081154      	79.818306      	78.94526       	78.34618       	77.80595       	77.92105       	76.17545       	78.495094      	77.92263       	76.3639        	78.11685       	78.405914      	78.48163       	78.60116       	77.99538       	79.08817       	77.42252       	79.05133       	78.69751       	79.423874      	78.53505       	78.823494      	78.48391       	79.197556      	78.5104        	78.604935      	80.42395       	78.400795      	75.2496        	64.98649       	92.649796      	92.4396        	89.3627        	92.54777       	90.04116       	92.569786      	88.702835      	92.128784      	92.41998       	76.24754       	74.71134       	75.787674      	78.52544       	79.14622       	
79.45249       	78.42877       	78.27568       	74.700325      	76.22987       	79.056076      	77.93445       	78.050674      	79.23629       	79.0833        	78.36473       	79.33122       	79.70331       	78.35331       	78.05215       	78.77251       	78.929016      	78.148026      	78.02616       	77.15654       	78.42204       	76.662544      	76.513466      	79.0845        	77.97717       	77.448814      	77.62285       	78.93432       	91.23062       	92.08248       	86.95236       	92.439         	92.2836        	86.44429       	92.50024       	92.37853       	90.277176      	92.15644       	92.48126       	92.33494       	91.103935      	92.56399       	92.40466       	89.45689       	92.47991       	92.394485      	78.96291       	92.43094       	86.484566      	92.219765      	92.33578       	88.30917       	92.497856      	87.80761       	92.10271       	92.3346        	74.02331       	78.2665        	79.21146       	92.12894       	80.98247       	75.938965      	77.37761       	77.85673       	78.42118       	77.15309       	75.35372       	78.846565      	77.32341       	78.302666      	76.4733        	78.954735      	79.19667       	76.84303       	77.7945        	79.62889       	80.561905      	77.71172       	78.89022       	78.17376       	78.31892       	79.033295      	77.82025       	77.54353       	77.863106      	79.22444       	77.56774       	90.73976       	92.56433       	86.12631       	92.66854       	92.49112       	91.10571       	92.56738       	86.679855      	92.56876       	89.75267       	92.4349        	81.862366      	78.41455       	
79.703865      	76.7749        	76.25329       	77.21741       	79.33996       	78.74035       	77.072975      	78.89238       	79.05665       	78.794304      	79.1787        	79.12946       	77.86586       	79.60628       	78.574875      	78.29358       	78.74879       	78.15588       	78.151115      	78.13425       	77.94355       	78.28994       	76.9082        	75.301094      	78.373116      	77.239395      	78.32716       	80.797104      	75.93058       	76.567444      	92.31423       	92.162224      	89.869514      	92.45254       	92.27634       	85.866806      	92.48769       	92.363106      	85.263985      	92.53475       	92.42164       	88.722115      	92.46229       	92.39804       	88.41426       	92.3394        	92.36095       	73.26343       	92.38601       	86.51693       	92.44795       	89.382195      	92.15265       	92.31558       	89.44244       	92.50858       	92.35776       	88.30865       	92.441216      	91.62292       	91.43765       	92.42039       	88.95539       	92.47269       	85.84987       	92.36167       	87.380325      	78.62216       	78.14385       	78.76417       	77.66055       	75.51324       	79.55252       	76.777725      	77.429184      	78.416885      	78.628716      	79.28262       	78.29135       	78.20896       	78.37602       	78.09459       	78.710045      	78.94328       	78.667946      	78.503365      	81.414566      	77.387634      	78.92745       	75.41798       	75.04615       	79.50147       	76.97353       	77.1154        	77.84855       	79.34025       	80.30255       	77.760574      	80.11525       	79.070656      	
79.98426       	76.67886       	74.44896       	76.80381       	76.67208       	77.82538       	78.24169       	78.55836       	78.90138       	78.53912       	79.46996       	78.47725       	79.23206       	79.23385       	78.190956      	78.95271       	78.37244       	78.40474       	78.11508       	78.62098       	78.265594      	75.55103       	77.912476      	75.95372       	76.53155       	78.031296      	77.47222       	76.719536      	79.31154       	77.42748       	75.686195      	76.28255       	77.93399       	74.49013       	91.71849       	92.00334       	83.381714      	92.416016      	92.247         	91.82762       	92.44153       	85.66947       	91.7924        	92.433266      	79.46088       	78.167564      	78.26887       	77.460144      	76.34683       	75.11715       	87.5819        	92.29347       	85.60347       	92.36132       	84.986145      	78.974236      	79.411835      	77.07758       	78.43055       	78.343056      	77.20703       	92.4181        	80.86927       	75.52429       	74.50178       	75.64009       	80.2649        	74.07693       	79.65199       	77.85438       	79.975174      	78.77958       	78.52625       	78.77008       	78.415215      	79.25342       	79.847145      	79.30376       	78.65318       	78.87494       	79.45119       	78.79939       	78.34418       	78.81771       	79.23622       	78.62089       	78.35393       	77.67502       	77.55636       	74.045685      	76.82883       	78.001884      	78.00919       	78.441444      	77.78355       	80.78447       	78.910095      	78.81893       	78.64304       	79.161476      	
79.74399       	77.374794      	74.088264      	76.16493       	76.160484      	78.263985      	78.46677       	79.18962       	78.623795      	78.73618       	79.0336        	79.177666      	79.68165       	79.10687       	78.335915      	77.8211        	78.227135      	79.09184       	79.65354       	78.15166       	77.39381       	75.855194      	78.39715       	76.51421       	78.2049        	77.822815      	78.505585      	80.39672       	75.205475      	76.15185       	77.872475      	77.04584       	73.84813       	92.319305      	88.82403       	91.5997        	92.078125      	76.72214       	92.4787        	92.315445      	85.42655       	92.46315       	92.31747       	81.81612       	77.6822        	76.44916       	77.2249        	78.95661       	79.04631       	77.79387       	77.61486       	92.364685      	87.52609       	91.97493       	92.36275       	86.70389       	92.46003       	87.00905       	91.57188       	92.42294       	86.77113       	92.48931       	86.97965       	92.01315       	91.05877       	91.78872       	92.36797       	87.14085       	92.20222       	83.13584       	75.166374      	80.43258       	78.90486       	77.4925        	79.86903       	78.877304      	77.1959        	79.60188       	78.08092       	78.60479       	78.655136      	78.68707       	77.970795      	79.08694       	77.554726      	79.204994      	79.11551       	77.214485      	80.095314      	73.51393       	79.13311       	79.68691       	78.609474      	78.421074      	78.561195      	80.14968       	79.582504      	79.617386      	77.90647       	79.73802       	
79.45885       	78.85942       	78.232925      	75.71092       	77.59719       	78.13448       	78.86611       	79.182076      	78.00382       	79.428154      	79.18793       	80.047966      	78.46655       	76.7994        	77.62307       	78.96515       	78.465576      	77.89275       	77.53494       	77.54241       	78.50939       	77.31984       	77.74744       	77.96886       	77.67248       	78.90977       	76.23667       	78.110466      	76.36996       	75.63425       	79.60283       	80.22284       	75.21509       	91.9856        	91.8941        	91.178375      	91.99618       	85.54174       	92.4079        	89.00422       	92.04484       	92.361626      	79.29103       	76.84463       	77.48314       	75.89747       	74.64463       	92.33606       	89.63137       	76.99992       	92.30241       	86.98225       	92.440636      	92.144844      	91.76315       	92.420715      	85.92502       	92.4484        	92.373055      	88.481804      	92.5226        	92.30552       	87.748924      	92.42674       	86.15125       	92.52686       	91.19582       	91.31961       	91.73398       	80.78878       	91.82852       	91.84865       	79.54104       	79.168686      	77.621376      	78.73923       	78.05456       	79.391235      	77.51863       	80.3774        	77.02506       	78.24281       	78.32853       	76.78602       	78.631905      	77.86046       	78.3711        	78.029106      	76.340385      	76.43869       	92.45179       	58.772392      	91.83141       	77.595245      	76.7895        	78.90138       	78.83673       	79.11459       	78.20775       	78.75712       	
79.748985      	78.827866      	77.13218       	76.92985       	78.32974       	78.21285       	78.874504      	79.20713       	78.81514       	78.5141        	79.959076      	78.80857       	79.21608       	78.91598       	78.28999       	78.95266       	78.3522        	78.11051       	77.230865      	75.34828       	78.89588       	80.57442       	78.40733       	78.51657       	76.94002       	78.91136       	78.31677       	75.28384       	77.52604       	75.992004      	75.8889        	81.036545      	76.47696       	78.27348       	78.15461       	74.99883       	92.22241       	87.63324       	92.33933       	92.19938       	88.5838        	92.27601       	80.115005      	77.86689       	79.43558       	78.250565      	78.756325      	91.9177        	92.28476       	86.49594       	92.30707       	89.576614      	92.38842       	92.26152       	84.881256      	92.43581       	90.46078       	91.81276       	92.468475      	84.96944       	91.60813       	92.428894      	90.018036      	92.49122       	92.32281       	77.44001       	92.50509       	86.79985       	92.54277       	87.48837       	92.53466       	86.370575      	92.17745       	91.6613        	79.08369       	78.438805      	75.25181       	77.9738        	79.878075      	76.96995       	78.9609        	77.95746       	78.894615      	78.96351       	76.97694       	76.603424      	77.732025      	73.74018       	77.21998       	75.777725      	77.62459       	77.00827       	77.364655      	78.84001       	79.0354        	78.40046       	76.673325      	78.52043       	77.850876      	78.507805      	
80.28289       	78.36355       	76.77244       	74.40738       	79.30826       	77.74655       	78.18591       	80.09446       	79.88566       	78.66145       	78.50251       	79.43187       	78.926216      	76.1681        	79.4998        	78.79361       	77.897415      	78.32769       	77.6214        	77.5599        	79.19957       	78.996025      	76.80795       	77.60383       	77.30604       	78.08278       	79.59339       	74.64532       	76.051895      	78.374886      	73.91882       	92.13981       	80.882965      	89.3288        	87.348946      	91.37025       	86.59068       	92.0626        	91.854645      	77.929184      	92.32117       	83.23321       	77.09945       	77.23625       	76.17597       	76.689224      	92.371635      	92.230865      	86.70454       	92.3478        	91.98346       	91.0912        	92.27801       	85.09962       	92.401184      	88.772514      	92.42644       	92.30704       	91.293785      	92.478134      	85.70781       	92.38314       	92.450966      	84.93844       	92.522064      	92.238686      	90.711235      	92.46325       	86.01241       	92.50339       	86.90909       	92.60708       	92.0596        	78.84957       	77.8828        	77.70726       	79.78398       	78.69005       	77.53986       	78.29131       	79.17278       	77.85245       	77.91286       	77.6355        	76.925606      	78.308586      	77.423935      	77.248184      	78.13599       	76.71766       	77.76827       	76.29711       	78.340805      	78.14252       	78.86631       	76.68814       	78.938705      	78.65795       	79.05885       	77.121475      	
79.64753       	76.43817       	74.670784      	76.61388       	78.07092       	77.751564      	78.44814       	80.547806      	78.435425      	79.13          	79.25395       	78.40895       	77.85177       	79.53718       	78.81369       	78.88421       	78.18822       	76.902985      	77.02097       	78.83829       	76.98334       	76.04416       	77.33817       	78.78393       	78.78659       	75.52366       	76.56028       	78.51168       	76.44562       	75.50701       	92.00873       	73.65586       	74.497734      	91.87488       	87.46345       	92.180756      	87.66508       	92.30446       	92.059906      	91.30684       	92.27543       	86.39573       	92.29729       	92.212776      	84.46023       	92.342186      	90.38263       	91.81975       	92.293396      	88.83893       	92.45066       	92.28987       	85.29557       	92.41136       	92.20919       	91.480576      	92.44316       	88.05656       	92.3943        	92.41569       	85.25065       	92.43022       	92.381874      	85.26638       	92.52774       	90.19913       	92.3477        	91.21596       	90.48799       	92.28077       	78.602715      	78.68418       	78.463165      	79.36536       	78.66616       	78.52668       	80.092606      	77.39348       	78.38683       	79.05251       	78.81171       	78.00937       	78.20031       	77.454056      	78.19872       	77.683716      	77.401436      	92.58878       	92.38022       	74.01663       	75.94264       	78.328476      	78.04224       	80.10248       	78.51351       	77.77295       	76.01862       	78.26355       	77.83172       	77.052925      	
78.260216      	79.08208       	77.35663       	74.839745      	77.8165        	77.76831       	79.36645       	78.00637       	79.63266       	79.749084      	78.33035       	79.509254      	78.649994      	79.505005      	79.054375      	78.487526      	77.722435      	76.134636      	74.231804      	76.790115      	77.254875      	79.6737        	78.42322       	77.68805       	76.328285      	79.01646       	78.76055       	75.59512       	76.44666       	75.756966      	74.819275      	78.05378       	79.26752       	78.58451       	74.94586       	92.09513       	88.43911       	92.068474      	92.161934      	83.43803       	92.31749       	92.13159       	91.05629       	92.27938       	88.096535      	92.23679       	92.24667       	86.23563       	92.23783       	92.065445      	75.9543        	92.394806      	92.17658       	88.677055      	92.38985       	89.776245      	92.37869       	89.43641       	92.40673       	92.39579       	87.09624       	92.570724      	92.39806       	85.75064       	92.511826      	90.741486      	91.25258       	92.17623       	84.978294      	92.27359       	82.26255       	78.839836      	79.43476       	81.14329       	77.67202       	80.43822       	76.36579       	78.94223       	76.12726       	77.645905      	78.161064      	78.04204       	74.98222       	77.43692       	76.186935      	78.36908       	78.20195       	74.71102       	92.50907       	90.555885      	90.4893        	91.38474       	76.119545      	77.93773       	78.499466      	78.79104       	79.90998       	77.6874        	76.94848       	76.51725       	
79.901405      	79.92319       	78.019424      	76.0278        	76.6035        	77.10884       	79.60126       	77.82021       	79.145134      	79.30703       	78.58296       	78.990746      	79.71468       	79.18276       	78.436775      	77.65608       	77.20808       	76.05554       	77.46555       	78.357124      	79.08819       	78.949356      	79.06697       	78.77337       	78.64333       	78.982155      	77.52928       	76.14066       	76.58579       	77.39864       	76.545425      	80.05158       	74.405464      	75.0729        	77.28584       	49.184547      	92.190674      	85.77382       	92.19546       	92.11019       	88.471405      	92.291245      	90.2603        	91.53499       	92.28168       	87.36966       	92.34291       	92.27391       	85.98989       	92.52255       	92.31494       	85.06846       	92.428955      	92.30615       	85.956955      	92.17324       	86.650406      	92.09434       	92.080025      	85.68916       	92.56276       	86.32146       	91.6938        	92.11764       	87.78643       	91.90786       	92.15305       	78.57808       	92.041595      	86.1419        	91.91932       	92.18249       	79.40025       	78.53822       	75.718475      	77.64918       	78.587746      	78.896645      	75.07692       	79.54026       	77.07435       	77.74463       	78.17022       	77.01213       	77.97377       	92.447975      	87.04203       	92.52289       	87.4964        	92.27987       	92.45661       	73.23768       	76.10539       	75.29128       	79.26697       	77.81888       	79.264084      	77.50856       	78.672775      	78.0725        	
79.80677       	78.36182       	77.76303       	77.77073       	77.23839       	78.66584       	79.453255      	79.751884      	79.177635      	78.54857       	79.62994       	78.43608       	77.82337       	78.48814       	77.28438       	79.55909       	76.72541       	75.754616      	77.55963       	80.59406       	79.38149       	78.7027        	78.309105      	77.6501        	77.93328       	78.316986      	78.868515      	77.34881       	77.703354      	77.16922       	76.4319        	76.41506       	77.29947       	79.284004      	76.84391       	73.56406       	76.55628       	90.83399       	92.16778       	85.90369       	92.274376      	92.21171       	88.08809       	92.34552       	92.13354       	90.36635       	92.26603       	86.25175       	92.52342       	92.32042       	85.960396      	92.52464       	92.41957       	86.03385       	92.51106       	91.47804       	91.58527       	92.36999       	82.83331       	92.53902       	92.30262       	91.88703       	92.50701       	86.50661       	91.78641       	92.40888       	85.900795      	92.47186       	88.412636      	92.34717       	92.331314      	75.61244       	78.62111       	80.26582       	77.80155       	78.93808       	75.607956      	75.95102       	77.41701       	77.95704       	78.92042       	74.9014        	77.54135       	87.264725      	92.394875      	86.87676       	92.507324      	86.93298       	92.50738       	89.39608       	91.571686      	92.452545      	75.854935      	77.92148       	78.54586       	78.58385       	77.73721       	79.0232        	76.728355      	78.91162       	
79.77425       	78.43587       	77.858665      	78.043045      	78.083145      	78.4035        	79.71158       	79.24473       	79.96505       	77.82047       	78.75263       	79.15738       	78.04273       	77.60995       	77.198364      	78.044685      	76.93024       	76.0021        	77.53348       	79.28578       	79.76434       	78.06729       	78.63723       	77.81436       	78.970566      	79.4754        	78.260025      	77.78195       	76.22136       	79.31673       	77.59563       	76.99644       	76.78544       	76.176636      	76.94162       	77.66608       	75.63194       	77.21353       	92.23238       	86.693146      	92.23021       	92.19921       	89.59747       	92.20409       	83.21282       	92.26345       	88.428734      	92.415855      	92.1949        	90.813835      	92.42897       	86.75896       	92.26809       	92.25036       	80.83092       	92.44897       	87.58101       	92.50218       	89.48162       	92.36472       	92.4563        	87.33457       	92.50719       	92.31213       	91.07752       	92.437126      	87.5968        	92.48566       	87.71153       	91.98784       	80.69966       	79.10511       	76.78943       	77.95646       	78.55197       	78.11269       	77.595375      	79.54894       	77.37055       	76.29788       	92.40433       	85.70407       	92.22346       	92.3495        	89.531876      	92.43472       	81.26104       	92.47144       	87.22004       	92.34491       	92.45109       	75.73431       	75.77073       	78.21367       	77.96293       	78.08263       	78.11939       	76.30359       	79.87739       	78.6089        	
79.655464      	78.60418       	77.73478       	78.430214      	74.391075      	82.34728       	76.22887       	80.51814       	77.05475       	80.490524      	78.61637       	78.07523       	78.871185      	78.09099       	78.58791       	76.28491       	76.569626      	77.57069       	77.73856       	78.18805       	79.519615      	77.99297       	72.35894       	75.191216      	74.83457       	77.205124      	77.77442       	78.6423        	79.00921       	77.646454      	79.37249       	77.69807       	78.30086       	78.05228       	75.63652       	74.55175       	75.19881       	77.01427       	92.16768       	92.250946      	89.6323        	91.56667       	92.222176      	87.91902       	92.28819       	92.09119       	91.07377       	92.357765      	88.196434      	92.43049       	92.33591       	85.33812       	92.43443       	92.30992       	87.95585       	92.47783       	89.7741        	92.39717       	92.43561       	85.06737       	92.59864       	92.46283       	85.518425      	92.51945       	92.38874       	85.19819       	92.413445      	86.31575       	81.78501       	79.5774        	78.87717       	76.2984        	77.91396       	80.08387       	80.01216       	78.1827        	76.70583       	75.68036       	67.63029       	92.277504      	89.15597       	92.432945      	91.25652       	90.33973       	92.42019       	85.78013       	92.52014       	89.05983       	92.25654       	92.39884       	78.75005       	74.97275       	92.365486      	92.33279       	74.87691       	75.817406      	76.49199       	78.23859       	79.05393       	79.61147       	
80.15718       	78.31248       	77.86075       	77.48161       	74.244934      	77.16451       	80.501755      	77.21982       	78.91474       	77.32035       	78.115425      	78.41794       	77.03482       	77.8993        	76.31602       	76.21296       	77.41221       	78.55996       	79.442604      	79.12517       	76.79349       	77.352486      	78.93543       	77.69771       	77.196945      	76.22692       	77.44149       	79.54704       	79.28638       	78.865555      	79.87086       	80.35336       	76.50443       	78.69831       	73.01827       	75.64693       	77.693565      	79.10736       	77.581924      	91.229706      	92.19609       	89.01723       	92.29025       	92.12485       	87.41504       	92.222435      	84.55208       	92.505264      	92.333244      	87.96663       	92.496826      	92.43738       	90.590385      	91.45577       	92.35912       	84.93276       	92.49873       	92.28295       	89.09106       	92.493286      	89.6869        	92.354546      	92.451965      	85.56056       	92.461494      	88.93107       	82.06279       	78.34122       	78.099915      	80.31907       	77.803825      	79.647095      	77.413246      	78.47505       	79.778435      	79.48801       	74.78096       	76.61312       	89.381516      	92.44045       	92.199715      	91.01015       	92.45923       	88.37934       	92.46538       	88.66027       	92.164856      	92.43273       	87.64727       	92.54622       	87.00086       	92.25558       	92.482346      	80.967674      	91.24795       	92.374664      	79.49636       	78.591835      	78.355545      	78.70661       	
79.48744       	79.47851       	79.535164      	77.94985       	78.18274       	76.820724      	78.148285      	70.80616       	90.13131       	76.29832       	75.65464       	78.24358       	76.10204       	78.35265       	75.732864      	76.70705       	77.87096       	79.370056      	78.89696       	80.01295       	76.56805       	79.63354       	79.87613       	73.3957        	77.742546      	76.47764       	77.693474      	79.17943       	79.54748       	80.23327       	78.34376       	80.10959       	76.03116       	76.348495      	74.12665       	89.71957       	92.010086      	74.39239       	79.34038       	92.270004      	92.05344       	91.66797       	92.198616      	84.32686       	92.26491       	92.10736       	87.76032       	92.482506      	92.256134      	36.71201       	92.5836        	92.375046      	85.694466      	92.37441       	91.95085       	91.660614      	92.34003       	82.83396       	92.413445      	90.18033       	92.483795      	92.22082       	87.15611       	92.26963       	76.32449       	75.82287       	78.88134       	76.866806      	78.78042       	77.53325       	79.761795      	76.98619       	78.20702       	80.79376       	77.587296      	73.70713       	91.240234      	92.378174      	90.654205      	92.132454      	92.45026       	90.07367       	92.113594      	92.54029       	92.35067       	88.35566       	92.65939       	92.47956       	87.82183       	92.64513       	92.47828       	72.06384       	92.70771       	92.53117       	86.762436      	92.56174       	91.274925      	80.403206      	79.02468       	77.01174       	
79.74524       	79.246445      	78.72392       	79.09472       	77.278435      	79.97985       	80.20091       	78.74048       	75.95983       	78.437256      	79.84298       	78.45793       	77.72135       	78.255905      	77.899956      	79.15301       	76.262474      	78.12001       	80.300224      	76.052025      	77.676186      	79.42202       	77.95297       	78.72122       	73.31349       	76.836494      	77.66194       	78.81488       	80.075966      	77.61946       	79.66987       	79.23999       	76.1467        	77.38531       	76.97954       	75.236015      	78.151535      	76.229065      	78.62611       	91.32766       	91.936195      	89.928535      	92.16338       	73.307304      	92.19148       	76.8196        	92.241585      	85.43946       	92.54557       	92.33514       	71.92278       	92.53542       	92.29301       	89.9703        	92.360634      	85.86892       	92.47528       	89.62536       	92.43396       	86.37175       	92.17908       	92.30507       	78.01054       	77.12304       	77.61633       	77.69562       	78.16301       	78.63643       	79.299805      	78.362206      	79.03081       	80.3413        	77.055214      	78.926445      	78.72771       	79.5551        	92.40716       	86.47426       	92.13225       	92.48523       	90.11722       	92.35037       	92.53599       	90.8554        	91.97905       	92.5906        	92.41739       	87.13711       	92.65641       	92.47599       	73.02454       	92.67036       	92.48052       	85.99682       	92.55258       	87.906235      	92.28649       	80.93466       	78.29765       	77.366234      	
80.04801       	80.195625      	77.07905       	76.40489       	77.374725      	82.02117       	78.254585      	78.578384      	76.8584        	77.44945       	78.83342       	78.919464      	77.684685      	77.84702       	78.15984       	80.28585       	76.88217       	78.07852       	78.92053       	76.83904       	77.09964       	79.05827       	77.97224       	78.16169       	76.8549        	76.6555        	78.64807       	78.585335      	78.6208        	79.19334       	80.21106       	76.87643       	77.92788       	78.13904       	78.06838       	76.30285       	74.51324       	76.24203       	76.09101       	76.791985      	78.39929       	84.88277       	92.21606       	86.92839       	92.21616       	54.580563      	92.25572       	83.78032       	92.45286       	84.084366      	75.435074      	80.908195      	77.60566       	77.63624       	76.69063       	75.94299       	77.42695       	80.625755      	79.069984      	77.693794      	77.95847       	92.26853       	80.6472        	81.24413       	78.17684       	76.84221       	79.240944      	75.65129       	78.77319       	77.2614        	80.866234      	80.722664      	78.19574       	80.31575       	78.84868       	77.49793       	86.148834      	92.53796       	92.336334      	90.141556      	92.599174      	92.44435       	89.07149       	92.56964       	92.5266        	90.71667       	91.91971       	92.634         	92.47125       	86.81629       	92.74779       	92.56491       	90.67264       	91.9961        	92.688194      	92.476845      	74.76981       	92.55798       	87.55193       	91.99652       	
79.88839       	77.62195       	77.934906      	78.79677       	78.5493        	91.44655       	80.67698       	80.61821       	75.030685      	78.98041       	77.67918       	78.23392       	78.64619       	77.41212       	77.455154      	77.50076       	80.203354      	74.78371       	77.202225      	76.08967       	76.98897       	77.47339       	75.96277       	77.86967       	77.40578       	79.13873       	80.21653       	77.76631       	79.08116       	77.294075      	77.29575       	76.7864        	79.28372       	76.109985      	77             	76.6113        	76.53957       	77.322395      	76.62862       	78.520905      	75.958206      	77.936935      	73.62327       	92.33894       	92.09897       	86.81885       	92.34979       	88.612366      	92.16722       	92.42158       	88.17077       	92.15565       	92.475914      	88.17624       	91.497215      	89.72031       	91.71603       	89.792694      	92.13209       	86.813324      	92.161385      	79.982315      	81.16971       	88.132034      	78.18137       	78.52467       	77.0214        	76.3652        	80.08775       	74.18793       	79.66152       	76.58995       	77.485825      	81.12406       	78.7662        	77.55042       	92.30974       	92.38943       	92.14611       	92.12782       	92.557915      	92.328896      	84.93971       	92.605415      	92.42863       	90.14412       	92.671616      	92.51665       	91.911446      	91.74322       	92.64075       	92.450035      	89.52793       	92.74648       	92.57328       	92.20919       	91.874916      	92.481804      	86.55217       	92.46747       	
79.253235      	78.08871       	78.09955       	79.114174      	78.268166      	78.49829       	78.49849       	76.60606       	79.160194      	80.2819        	76.9782        	78.340454      	79.770996      	77.64941       	75.87043       	79.45425       	78.04906       	76.489265      	77.213486      	76.90416       	77.95383       	74.8504        	76.45366       	78.07853       	77.82771       	78.08875       	78.09441       	75.71083       	77.84888       	78.65581       	79.25232       	76.31205       	78.697105      	75.46794       	76.14848       	77.22886       	76.57869       	75.47928       	75.55819       	77.27141       	78.169945      	77.81668       	75.860275      	90.80489       	92.29474       	91.7108        	91.78538       	92.27753       	88.9995        	92.41118       	92.210236      	77.13411       	92.226494      	92.12096       	79.92486       	78.49989       	77.84627       	76.76733       	88.3346        	92.11782       	73.23401       	78.172585      	78.59051       	78.35274       	75.78158       	75.67552       	79.160706      	77.48024       	78.26293       	77.64588       	80.415955      	79.565094      	79.98243       	78.59071       	92.317955      	89.13465       	92.34274       	87.325195      	91.618095      	92.49798       	92.29746       	78.89374       	92.62655       	92.458336      	86.94247       	92.595795      	92.58272       	92.399506      	89.23733       	92.67276       	92.46947       	87.45369       	92.75224       	92.60346       	92.40716       	88.78704       	92.6111        	90.933044      	90.74367       	92.57261       	
79.34004       	78.02857       	77.545876      	78.76673       	79.89144       	77.47493       	87.9903        	78.34644       	79.504234      	76.00914       	79.87815       	81.86102       	77.41813       	76.338104      	77.083466      	78.75394       	77.025505      	78.026344      	76.49726       	79.25367       	78.20727       	75.99968       	74.99731       	76.42048       	79.51714       	78.06059       	78.90992       	76.57528       	79.02256       	76.90037       	77.99422       	77.5785        	78.08499       	72.302345      	77.41224       	75.67053       	75.12982       	75.44002       	75.49983       	79.006714      	76.05138       	76.90147       	75.55498       	77.54865       	79.49146       	78.36555       	76.16028       	83.452354      	92.28761       	83.915436      	74.675026      	75.688736      	77.70293       	79.64186       	79.36389       	92.29533       	56.43742       	92.26547       	72.71446       	75.5206        	75.06701       	79.55319       	78.10482       	78.97548       	80.08439       	75.84891       	74.97116       	77.00327       	76.59604       	76.40597       	77.2793        	75.96192       	76.90633       	72.687454      	78.8934        	92.32121       	85.69445       	92.41474       	92.42463       	87.90437       	91.90609       	92.420074      	89.552635      	92.4901        	92.53666       	92.34896       	82.45949       	92.679794      	92.49889       	87.53031       	92.45424       	92.62557       	92.43594       	74.87624       	92.70422       	92.51775       	89.65427       	92.63805       	92.459854      	86.22033       	
79.586876      	77.600685      	78.787346      	76.47048       	66.15217       	91.90087       	72.96125       	91.961334      	87.17802       	91.89796       	88.16908       	91.88166       	78.02728       	78.88247       	76.66521       	79.63624       	77.21425       	79.65464       	77.680626      	77.783676      	74.542046      	78.34026       	77.66536       	78.29211       	77.28548       	79.58239       	79.39732       	77.018715      	77.43103       	78.55785       	79.056946      	78.917435      	74.85348       	76.9547        	74.86074       	77.02815       	76.33142       	76.50587       	76.91981       	78.439964      	77.663574      	76.697014      	77.410805      	77.209         	78.00993       	76.62361       	76.096855      	92.36836       	86.0239        	80.242966      	76.57824       	76.40836       	78.04467       	92.25422       	78.64536       	77.3379        	92.122536      	87.63814       	92.28336       	77.0409        	78.81867       	76.04232       	78.67884       	75.96735       	77.073         	74.41711       	79.115         	79.19983       	81.03191       	82.98145       	91.76157       	87.830826      	81.32487       	78.94193       	92.27059       	78.7323        	85.23884       	92.38721       	87.55416       	91.88246       	92.44788       	92.21932       	90.982475      	92.53482       	92.35066       	88.22538       	92.63208       	92.43618       	86.35676       	92.74154       	92.58448       	92.37728       	90.4917        	92.7373        	92.52861       	89.081505      	92.676796      	92.505806      	88.21216       	92.64018       	
79.873535      	77.243706      	74.75928       	77.48363       	90.90449       	86.188095      	91.29333       	86.72255       	91.568924      	87.07059       	79.29413       	78.99787       	79.06461       	77.75884       	78.72524       	76.66689       	77.234764      	78.40909       	78.720375      	78.026566      	75.57683       	78.86435       	76.4963        	79.691605      	77.7105        	76.38245       	77.22339       	77.455925      	78.358635      	78.38863       	77.44912       	77.845535      	75.73908       	75.33449       	91.5065        	87.31002       	91.92365       	86.16518       	92.128624      	92.03372       	72.402725      	74.192505      	77.4737        	76.34579       	79.193245      	77.12174       	75.08149       	91.803185      	81.54449       	74.110405      	91.8157        	82.83109       	79.15229       	76.29971       	76.09337       	76.89815       	76.4896        	77.756615      	81.22099       	75.426025      	76.30433       	75.88326       	75.43236       	78.14445       	77.83013       	77.56983       	77.44314       	92.3278        	86.37463       	92.186806      	89.4403        	92.20807       	73.707634      	79.97069       	81.53819       	92.30403       	86.98679       	91.93708       	92.38381       	89.9661        	92.5459        	92.40084       	87.54159       	92.628075      	92.500374      	92.253494      	92.3469        	92.68011       	92.47814       	86.67725       	92.83925       	92.72614       	92.499565      	90.13182       	92.79985       	92.626686      	92.15178       	92.47533       	92.64175       	90.34629       	
76.522644      	75.808525      	76.08123       	76.117874      	76.288414      	81.73232       	77.51065       	80.353546      	78.18081       	78.73671       	78.631546      	76.64518       	78.22973       	77.20356       	78.84717       	77.80562       	77.72469       	77.66034       	77.78644       	76.64175       	77.88641       	76.952225      	79.919395      	77.903305      	77.68064       	76.66623       	76.076096      	77.955956      	76.68584       	76.3957        	77.42516       	79.10071       	77.64304       	80.19138       	75.2515        	89.475845      	89.73227       	91.89382       	92.06776       	89.87346       	92.19992       	86.935104      	92.16788       	78.56316       	75.755936      	80.4895        	90.22633       	80.24448       	79.428314      	74.905624      	83.562195      	92.29055       	58.04039       	92.27033       	87.900566      	91.42147       	90.73495       	83.78869       	77.60572       	77.86756       	75.368515      	78.12274       	77.96641       	78.51633       	78.92327       	73.71257       	90.97079       	76.417595      	76.510216      	92.32081       	90.0768        	87.51106       	77.60168       	87.34535       	89.77253       	82.9318        	91.99243       	92.20954       	88.94759       	92.44721       	92.266716      	90.5139        	92.527306      	92.33895       	90.47115       	92.67082       	92.47793       	89.18016       	92.791         	92.66002       	92.438934      	68.01852       	92.84001       	92.64224       	92.43603       	90.960175      	92.63708       	88.77003       	92.18564       	92.51602       	
78.064186      	78.410904      	80.34652       	75.743065      	75.14064       	77.04113       	78.131485      	80.450005      	79.70834       	77.901695      	78.377396      	77.82014       	76.19976       	78.097115      	77.46943       	76.925934      	79.770164      	78.31234       	78.90231       	75.98948       	77.4495        	77.986755      	78.2749        	78.075714      	78.675156      	78.35999       	74.16364       	78.09352       	77.58337       	78.52579       	77.73584       	78.59368       	75.02437       	77.40115       	91.81239       	79.4826        	92.12788       	85.59897       	92.33611       	91.90289       	91.123344      	92.20394       	74.6819        	92.30753       	89.624886      	92.25511       	76.87904       	74.7978        	79.55357       	78.55835       	76.986946      	76.56316       	75.294106      	79.60036       	72.056         	77.594345      	77.47489       	78.47318       	78.8094        	76.0038        	76.50849       	73.76791       	76.94144       	74.66362       	81.520905      	91.21354       	91.67523       	90.96581       	89.30594       	79.55497       	77.305885      	76.24591       	81.75541       	80.66688       	90.33011       	87.74352       	92.30928       	89.84062       	92.55111       	92.3696        	79.02728       	92.57543       	92.37103       	87.589836      	92.476845      	92.299446      	91.37558       	92.63165       	92.4347        	90.82602       	92.70891       	92.48939       	80.871124      	92.55017       	89.276474      	92.31182       	92.50418       	90.01726       	92.59341       	89.876495      	
79.00348       	77.73057       	78.85651       	78.01024       	76.75676       	79.38063       	78.32367       	79.83929       	77.0649        	78.80516       	77.84882       	78.153145      	78.76534       	77.74036       	78.228836      	76.89667       	78.33124       	76.49182       	77.20595       	78.09703       	77.020615      	78.72651       	76.55757       	78.59768       	77.47017       	78.44656       	77.13637       	76.33335       	78.37023       	76.84111       	74.73605       	91.585236      	87.30746       	91.882805      	89.5984        	92.24178       	89.05815       	92.37359       	92.19107       	90.50968       	92.266266      	86.97644       	92.386635      	86.55457       	92.01342       	92.26216       	89.953156      	92.26699       	73.9133        	78.200264      	77.278046      	80.043816      	78.397285      	92.36047       	85.61967       	91.79424       	76.76874       	80.19854       	76.30821       	77.6362        	77.35477       	92.1826        	92.342514      	90.98217       	92.39113       	77.09153       	92.44217       	86.33231       	92.23704       	92.2485        	90.96506       	92.33438       	77.87534       	92.32558       	68.96684       	92.3781        	86.29785       	92.5315        	92.432594      	88.01132       	92.66037       	92.493576      	89.86502       	92.6072        	92.61451       	92.38188       	86.36447       	92.80519       	92.598724      	86.92706       	92.884964      	92.689354      	89.34575       	92.64764       	92.6509        	90.45861       	92.5301        	92.56505       	87.61342       	92.39206       	
75.989296      	77.48971       	76.9615        	76.257225      	79.79715       	76.7911        	76.68234       	79.51245       	77.7826        	78.70599       	77.43732       	78.7423        	77.69363       	78.66898       	77.33761       	78.30159       	78.919624      	76.31333       	77.79307       	78.02437       	77.89873       	78.29617       	80.01196       	77.69623       	78.42848       	77.718544      	76.5315        	76.341896      	76.926796      	77.33803       	77.786476      	73.62714       	92.003006      	82.49744       	92.089455      	91.12305       	92.24316       	77.99832       	92.37796       	87.6796        	92.40235       	87.98771       	92.04021       	89.106705      	92.221924      	85.45374       	92.14654       	76.20596       	75.06913       	77.97136       	77.356514      	76.28276       	80.1046        	77.78988       	76.71326       	75.37765       	78.080956      	74.83405       	77.93507       	79.87775       	78.61344       	76.418274      	92.438065      	86.94734       	92.46314       	87.267204      	92.47484       	86.98383       	92.431564      	87.52031       	92.37654       	81.20175       	77.8245        	92.28126       	84.23825       	92.26189       	88.96664       	92.30074       	86.67991       	92.62015       	92.38342       	85.340385      	92.73387       	92.5377        	90.286446      	92.80506       	92.71661       	92.47595       	88.443794      	92.80124       	92.61227       	84.82315       	92.610794      	92.67787       	87.256256      	92.23995       	92.627686      	85.47546       	92.39979       	92.53294       	
81.30432       	77.97552       	77.46829       	79.45112       	76.0836        	77.6548        	77.09265       	77.36748       	77.844574      	79.601105      	76.51284       	78.45409       	75.35669       	77.12094       	78.71264       	77.21752       	77.55575       	77.40592       	77.65638       	77.59165       	78.819954      	79.185715      	79.94086       	79.850685      	75.87863       	77.013176      	76.341805      	78.49772       	76.538376      	78.17604       	77.86057       	76.75402       	74.59477       	75.363686      	92.23215       	86.982216      	92.384224      	85.89754       	92.23142       	82.266624      	78.08163       	81.03389       	81.64102       	91.535034      	86.4295        	92.31081       	78.00259       	76.125435      	76.20977       	78.78473       	78.6016        	78.06341       	76.565025      	78.83479       	77.812256      	77.93387       	77.570755      	79.53605       	78.09402       	77.880486      	79.02314       	78.42622       	92.161316      	92.382576      	90.503685      	92.30216       	91.37874       	87.843765      	91.93747       	86.76487       	91.22018       	92.32631       	73.23194       	74.55263       	77.4329        	78.2937        	88.761765      	92.402336      	80.349976      	92.43727       	86.68936       	92.65046       	92.452156      	85.87461       	92.72648       	92.53383       	85.47821       	92.77779       	92.608444      	86.44589       	92.653915      	92.61388       	88.347664      	92.73465       	92.58176       	85.92738       	92.579575      	92.44467       	88.438034      	92.57188       	
77.37736       	79.59219       	75.61145       	91.08683       	90.782585      	87.05589       	91.87203       	74.22693       	80.157646      	78.17025       	78.72515       	76.98362       	77.52759       	76.533875      	76.519966      	73.28187       	75.8625        	79.68621       	78.65172       	76.1755        	78.46763       	78.04884       	80.04549       	77.47203       	78.07721       	76.351585      	77.03556       	77.84348       	76.77509       	78.8566        	78.114784      	77.157715      	75.37096       	74.31164       	88.41659       	91.232735      	90.50596       	91.8227        	79.06          	77.93435       	77.44772       	76.83605       	76.47477       	80.76799       	74.305305      	80.0016        	91.07766       	79.75933       	75.249825      	74.80217       	77.591324      	77.45966       	76.112274      	74.819534      	79.40334       	77.27763       	77.58336       	78.10693       	77.63487       	80.82479       	77.118065      	79.23041       	74.94614       	92.222855      	89.50115       	91.85257       	58.404045      	91.1089        	85.343796      	91.43895       	86.34778       	80.56211       	91.92789       	84.98675       	90.92321       	82.268456      	78.25485       	77.28591       	74.82398       	78.080284      	91.855576      	92.3776        	89.295334      	92.64967       	92.487114      	88.058266      	92.727486      	92.53101       	85.31419       	92.52567       	92.57781       	86.91751       	92.42277       	92.42167       	83.93671       	92.50504       	86.42905       	92.47883       	87.80358       	81.56856       	
79.50731       	78.57089       	78.3549        	79.7611        	76.67105       	91.37639       	91.093765      	78.36975       	80.3524        	79.8346        	77.883965      	78.7398        	78.39964       	77.06123       	79.51742       	75.771164      	78.571175      	77.32166       	77.79961       	76.664055      	78.530334      	77.43759       	79.900154      	78.27602       	76.7293        	76.72967       	76.48897       	77.56281       	77.24786       	78.926155      	74.866104      	74.98282       	75.51035       	77.52448       	78.98617       	80.91648       	77.63791       	82.1295        	75.07956       	78.43038       	79.864235      	80.32929       	77.46148       	76.32553       	79.08963       	76.36251       	92.15812       	88.03461       	88.04428       	76.01675       	76.276344      	81.74134       	77.315216      	78.09639       	79.878815      	76.861534      	75.71374       	79.43666       	79.93022       	76.80051       	77.49337       	75.06532       	73.09011       	88.99021       	91.26103       	88.418045      	90.65031       	84.90333       	92.399925      	89.91662       	92.45783       	87.09196       	91.2441        	91.49134       	82.74406       	91.93106       	80.517654      	75.01566       	92.328804      	80.88452       	76.467094      	91.2832        	88.103676      	91.39006       	90.67016       	90.622025      	91.18873       	85.00787       	90.72424       	91.22673       	85.42575       	92.27789       	92.32124       	88.099625      	92.5186        	86.12635       	92.50547       	88.56026       	79.38292       	76.592804      	
79.11853       	80.427376      	77.43839       	91.40028       	91.45416       	85.79797       	91.37146       	91.42733       	76.0368        	76.76058       	82.8341        	91.18175       	86.08583       	91.37701       	86.976814      	91.07332       	79.818596      	80.803246      	81.62858       	76.48644       	78.73923       	78.477295      	75.44408       	77.8223        	78.04444       	77.93489       	76.54379       	74.12879       	78.87612       	77.90925       	78.50846       	74.93374       	77.78832       	75.91999       	74.55982       	75.44577       	73.81034       	78.708466      	75.90642       	75.97719       	78.327415      	79.97485       	78.999         	77.60069       	78.96626       	77.12612       	77.47803       	79.06178       	76.708824      	74.62042       	77.50945       	76.0802        	75.259926      	79.53733       	81.13697       	76.98319       	78.22044       	78.49418       	79.62216       	77.37946       	76.73536       	75.95498       	78.79053       	80.30705       	91.201866      	84.335         	90.91055       	90.999756      	89.08307       	91.224594      	62.214966      	91.237656      	86.67762       	91.4732        	75.286095      	76.329414      	79.274864      	78.283905      	78.87361       	77.05449       	77.410446      	77.21795       	89.38811       	91.23833       	85.95391       	92.55213       	89.968765      	92.56649       	92.56773       	83.65859       	92.35986       	79.328445      	73.76064       	92.53456       	80.52994       	80.52464       	77.41243       	79.620514      	77.14408       	79.219734      	
85.60673       	90.1152        	91.24522       	91.36396       	87.89151       	90.10578       	91.39017       	90.73324       	76.583824      	91.95905       	86.927025      	90.957016      	90.797226      	90.268         	88.510925      	78.9666        	77.43857       	77.63482       	79.36749       	78.47331       	76.87835       	77.81426       	77.440704      	77.94482       	76.09356       	78.40591       	75.77033       	78.344215      	76.249146      	77.53997       	74.95177       	78.17674       	71.88625       	73.53817       	75.860794      	75.1075        	75.081696      	76.46632       	74.42897       	77.43056       	77.0722        	76.81541       	78.56556       	77.17817       	74.94569       	69.369804      	91.51046       	78.39538       	85.151535      	90.93418       	87.457855      	78.95895       	77.62842       	77.50989       	79.48282       	78.72337       	77.69019       	77.90008       	79.483864      	77.39072       	77.03551       	78.230736      	79.0044        	76.0677        	80.08972       	90.66956       	87.99157       	91.47162       	90.820786      	90.5542        	91.58059       	85.174774      	79.47479       	78.52043       	79.64516       	79.03976       	76.22193       	76.60527       	73.796165      	75.89914       	78.30561       	78.79515       	77.34799       	80.80626       	91.5682        	91.51682       	87.95616       	91.28297       	91.24662       	84.562614      	91.4509        	88.43303       	91.69862       	91.48693       	88.205986      	92.48823       	81.65341       	79.11678       	79.002106      	80.15026       	
76.78254       	91.06074       	91.10442       	91.02806       	87.545135      	91.104225      	91.00949       	85.39658       	92.14938       	92.08065       	85.78158       	90.58664       	90.61675       	87.641914      	91.95355       	83.67111       	91.972664      	83.386826      	91.914734      	74.70369       	76.998055      	77.68035       	77.55711       	79.10286       	74.19187       	76.36765       	74.21158       	76.29279       	77.03945       	78.06875       	76.84148       	74.67816       	74.89877       	75.04731       	72.352394      	75.96674       	75.01992       	76.71738       	76.29949       	77.11889       	78.37182       	79.47632       	79.49821       	80.534065      	76.32211       	77.22638       	77.268074      	75.56248       	72.333176      	76.16002       	78.25297       	79.29638       	78.59137       	79.318115      	79.05371       	76.472755      	79.00124       	77.8833        	76.30644       	76.40197       	80.015884      	74.85739       	77.119606      	78.89096       	72.59417       	89.03631       	91.46243       	64.01252       	91.44216       	60.40263       	87.84487       	79.13665       	79.13345       	79.890175      	76.91924       	75.67038       	78.324295      	77.03699       	78.14931       	79.13596       	79.123024      	78.35004       	91.041115      	86.452446      	91.30587       	91.55944       	89.03205       	91.405136      	87.35512       	91.585045      	85.45699       	91.11413       	91.401665      	85.87674       	91.09941       	88.48565       	75.38473       	76.74544       	78.757965      	81.52325       	
91.078545      	90.90408       	87.41536       	91.48138       	91.679115      	91.55984       	42.868603      	91.323616      	91.14152       	86.76995       	91.27789       	91.0479        	85.283325      	91.026245      	90.999565      	80.20228       	90.86396       	85.735344      	89.87206       	90.635414      	75.26607       	79.4206        	77.28332       	77.66098       	77.889336      	75.981705      	76.565384      	72.12001       	78.12436       	76.01062       	79.29674       	73.0861        	72.95078       	77.78127       	83.57722       	78.20753       	73.75821       	75.01186       	79.0149        	75.92504       	76.670235      	77.82865       	76.963646      	81.67316       	80.29051       	77.840195      	76.530716      	78.77089       	76.78626       	75.14464       	77.815956      	78.399124      	78.30959       	78.237144      	79.319115      	80.38511       	77.84179       	77.47727       	78.96482       	77.97492       	78.24863       	75.72113       	78.147255      	78.23249       	77.29627       	77.548195      	75.45544       	79.370926      	79.16937       	77.277504      	76.18401       	74.74706       	85.71749       	75.982216      	76.60708       	74.22751       	81.5174        	78.13232       	78.90641       	78.166084      	78.37324       	78.24195       	75.68792       	83.53647       	90.76162       	87.944115      	91.23687       	89.97688       	90.14631       	91.82936       	85.30574       	91.332115      	91.377945      	88.54519       	90.90398       	88.14082       	82.66441       	79.843925      	79.23916       	80.5393        	
91.51049       	85.281204      	38.12637       	92.19192       	92.15907       	92.04493       	89.88487       	91.8082        	92.11076       	92.0032        	37.485252      	92.515144      	92.32579       	88.42752       	92.445816      	92.30608       	85.43784       	91.96371       	92.27107       	88.72186       	92.03868       	91.433105      	79.264275      	77.45459       	78.00148       	76.31761       	78.10694       	75.407585      	78.272484      	90.44213       	92.033714      	75.24117       	74.04379       	92.26987       	84.55653       	92.293         	77.8239        	76.3634        	78.89315       	74.65864       	77.36468       	77.27457       	74.810104      	80.20274       	78.78454       	77.45262       	75.977875      	82.73707       	76.25207       	78.98488       	91.62782       	77.73659       	74.112915      	78.85604       	77.43351       	80.78942       	79.37666       	78.62334       	78.44202       	76.114914      	78.36541       	73.6428        	76.42034       	75.592186      	81.274635      	80.141945      	80.2933        	92.245         	87.941025      	78.46977       	77.161736      	87.48697       	89.77004       	75.523155      	76.333466      	78.33333       	76.77121       	77.17683       	73.508156      	78.35304       	77.18571       	77.20182       	77.3478        	74.31207       	92.63483       	85.98583       	92.72194       	86.62828       	92.246185      	92.6072        	88.51327       	92.707085      	92.45546       	89.34175       	92.55813       	86.63247       	92.559845      	86.508835      	92.49745       	83.30144       	
92.37207       	92.18593       	85.48183       	91.78742       	92.40943       	92.27351       	87.10065       	91.91094       	92.36619       	92.09815       	91.820625      	92.408424      	86.984955      	92.36692       	92.27726       	87.94808       	92.392296      	92.192635      	81.596535      	92.27037       	88.46358       	78.86908       	80.659         	78.24067       	75.585556      	76.43806       	77.50887       	78.582664      	92.12497       	89.911934      	92.26266       	78.89978       	92.38621       	89.324196      	92.38875       	76.57807       	76.09374       	73.906265      	77.7396        	77.3994        	77.77851       	78.56016       	77.31004       	77.960335      	76.04267       	77.08674       	79.06492       	80.32433       	92.29134       	77.7771        	81.15902       	78.9711        	81.093636      	80.19323       	77.500626      	75.79855       	76.01816       	77.15632       	73.62835       	76.822296      	80.23424       	72.86753       	75.99792       	77.751976      	79.26535       	75.21245       	75.00732       	78.37005       	78.13912       	75.38321       	74.20428       	78.29643       	80.067856      	78.532814      	78.79632       	75.78304       	75.71056       	74.01883       	75.38084       	76.7631        	86.231995      	92.58248       	75.44099       	81.295364      	88.368004      	92.62675       	86.06234       	92.68967       	85.84955       	92.18652       	92.637726      	88.49306       	92.72181       	92.51155       	85.52164       	92.53006       	69.409134      	92.54729       	89.666115      	92.4224        	
92.37631       	92.23748       	86.505295      	92.24168       	92.381485      	92.19692       	89.33672       	92.376335      	91.736855      	91.68221       	92.36686       	86.585556      	92.412544      	91.04314       	90.61726       	92.16161       	85.26799       	92.24363       	92.02882       	88.47243       	92.032166      	78.252075      	77.68364       	75.07676       	79.22463       	77.15702       	85.74932       	92.11633       	91.1997        	92.20868       	89.65479       	92.34262       	84.45982       	92.37623       	88.13028       	91.731415      	77.640076      	78.956085      	76.854256      	77.61218       	78.771225      	79.473145      	77.429504      	76.21708       	76.46918       	76.88897       	82.69023       	81.36744       	76.674965      	76.33233       	80.36268       	76.55014       	80.58021       	78.40595       	79.9617        	75.05844       	79.04199       	77.658745      	74.82622       	76.595764      	86.4071        	92.2455        	87.1132        	92.46636       	75.84369       	86.93432       	91.47529       	91.5654        	77.56452       	76.9546        	78.560875      	76.07681       	78.06183       	77.81332       	78.00818       	78.39916       	73.81438       	77.7594        	77.674675      	77.69046       	76.2103        	75.254196      	92.06632       	92.36951       	91.99711       	92.639885      	72.59722       	92.68147       	89.12338       	92.72504       	86.610016      	91.68467       	92.67107       	89.031075      	92.69484       	92.50971       	90.30485       	92.55051       	89.646965      	92.546         	
92.11624       	81.8312        	78.4481        	77.42475       	80.819664      	89.595474      	92.28911       	89.94574       	92.12074       	92.286476      	88.40398       	92.30938       	85.6922        	77.72357       	92.315994      	86.46847       	92.28857       	92.1901        	86.018456      	92.31288       	85.87988       	79.986496      	79.97239       	80.53565       	74.32259       	76.52047       	91.90338       	89.09741       	92.113266      	89.08522       	92.14961       	92.1237        	89.59265       	92.43562       	86.18368       	91.97769       	89.388756      	79.805405      	73.65616       	76.08262       	77.70742       	76.45875       	91.86421       	59.684242      	91.07214       	91.21857       	87.79447       	76.49905       	75.07228       	91.081505      	82.368965      	77.22784       	66.26214       	92.256874      	76.1398        	85.29848       	92.0982        	91.393394      	91.708244      	91.81563       	86.83574       	92.18268       	91.90201       	91.89046       	92.38237       	86.26507       	92.4546        	85.76405       	92.4925        	83.88815       	78.10004       	76.26565       	75.52423       	79.46739       	75.80952       	76.76815       	76.55681       	78.51896       	75.77435       	79.004005      	78.54351       	78.066956      	78.420105      	92.65221       	85.66894       	92.43608       	92.32903       	89.744965      	92.70492       	86.02035       	92.70486       	92.5945        	88.24069       	92.72382       	86.92712       	92.38497       	92.53782       	79.54712       	92.53572       	86.85008       	
79.1988        	77.23756       	76.64716       	76.95788       	78.59173       	92.37411       	92.14763       	85.87166       	92.40517       	91.155205      	92.00318       	92.33027       	88.15947       	92.38336       	86.51309       	92.38025       	92.23262       	83.7866        	92.3516        	89.81797       	78.772224      	80.760544      	80.987686      	78.40431       	73.17232       	78.32573       	89.77019       	90.27965       	90.54614       	89.61768       	92.14171       	91.89463       	91.63654       	92.29262       	84.98405       	92.32889       	86.66576       	92.06108       	76.415054      	73.37982       	80.01887       	76.522766      	58.119385      	92.28911       	76.63697       	75.58758       	80.65761       	82.44847       	75.079155      	92.30522       	87.65122       	92.32033       	80.65936       	77.685234      	76.23301       	76.766556      	79.63039       	92.27554       	86.4041        	92.40873       	89.5756        	92.53426       	86.940346      	92.15629       	92.36758       	90.38884       	92.41148       	85.84391       	92.46656       	83.50572       	88.81203       	79.9694        	76.87612       	77.575066      	76.93432       	73.92962       	76.153175      	76.15945       	79.3925        	78.40549       	77.83378       	53.147488      	92.59093       	85.2382        	92.360085      	92.52725       	89.8303        	92.646835      	86.60769       	92.69534       	92.50708       	88.12297       	92.715546      	85.86617       	92.70497       	92.61858       	76.620285      	92.64803       	87.62815       	91.671165      	
78.61959       	78.47892       	80.06148       	85.40522       	92.428665      	92.24665       	89.08606       	92.40677       	92.22187       	55.4097        	92.474724      	92.30368       	88.935555      	92.41354       	88.7915        	92.27035       	92.212364      	89.767624      	92.19903       	77.003975      	77.490555      	76.199036      	80.09753       	77.99446       	78.7302        	91.02299       	86.374275      	91.838234      	89.72307       	91.99531       	89.685326      	91.980446      	92.302765      	77.564766      	92.48013       	92.21995       	91.78553       	92.34096       	74.26835       	73.663284      	76.32866       	79.84816       	91.32477       	80.98683       	76.22457       	76.832504      	79.780136      	77.41716       	75.867195      	77.290436      	76.69047       	78.60116       	79.15466       	78.032166      	75.92218       	78.71186       	76.59685       	92.344124      	87.862305      	92.432076      	87.15336       	92.44197       	85.802765      	92.36051       	86.31446       	92.50243       	89.52689       	92.44959       	75.58096       	76.95155       	77.3881        	77.90335       	77.17217       	78.043655      	75.73637       	74.39248       	77.90664       	76.74805       	78.30905       	80.95385       	78.0891        	92.5064        	89.13667       	92.615845      	87.152016      	92.16276       	92.614265      	90.06472       	92.678696      	88.55331       	92.755066      	87.56023       	92.379395      	92.62094       	81.97087       	92.69471       	86.93001       	92.62253       	87.4203        	92.214264      	
88.970146      	79.91226       	83.47854       	91.42786       	92.449036      	92.26791       	83.63066       	92.46701       	92.27517       	90.30117       	92.45425       	89.52411       	92.409164      	92.344284      	89.371056      	92.41169       	89.33532       	92.340164      	76.55938       	85.429825      	76.80019       	78.927986      	78.28407       	80.02046       	75.30064       	80.02121       	89.39148       	92.16691       	89.55815       	92.20876       	91.00179       	92.25227       	87.982635      	92.392006      	88.3625        	92.33053       	91.59575       	89.735886      	88.27407       	76.6419        	76.361885      	75.717415      	74.612724      	77.56874       	77.26556       	78.04416       	76.685905      	78.710945      	92.18114       	87.44604       	87.6304        	78.74768       	78.86838       	78.14621       	78.33517       	80.02156       	92.17776       	86.336815      	91.65721       	87.09936       	92.48262       	92.38857       	89.98238       	92.52876       	86.227844      	92.584625      	88.14309       	92.51429       	79.48347       	77.28221       	78.1994        	78.02195       	77.672585      	77.62907       	78.2388        	78.31648       	76.434074      	77.451675      	75.46224       	92.51487       	88.300835      	89.74355       	86.49146       	90.806984      	92.65724       	52.210503      	92.71719       	88.82615       	92.70452       	85.98679       	92.60994       	91.10024       	91.54706       	92.69147       	82.709076      	92.75085       	89.29119       	92.63328       	88.31456       	92.07389       	
92.4628        	92.30787       	88.578255      	92.04594       	92.458244      	92.27257       	81.9777        	92.47959       	92.28566       	87.56758       	92.46242       	91.22687       	91.72321       	92.360146      	88.9064        	92.43917       	81.903885      	80.886505      	79.37637       	78.47354       	80.16843       	80.29126       	77.257         	78.21423       	77.19438       	88.851295      	92.244484      	82.88927       	92.21619       	87.90416       	92.325264      	87.09802       	92.412926      	91.58933       	91.87423       	92.33851       	78.49973       	92.32939       	76.44543       	80.17376       	77.884964      	78.62336       	75.90941       	75.14653       	78.28133       	77.88315       	92.22713       	84.033745      	87.10889       	78.54867       	79.370125      	87.93067       	88.96201       	91.74409       	86.33168       	92.30198       	89.01255       	92.38932       	87.19516       	92.46724       	86.90092       	92.43335       	92.41372       	90.833405      	92.47164       	84.2324        	92.39792       	85.96902       	79.108864      	76.61235       	75.20467       	74.92356       	75.31003       	76.72878       	78.726944      	79.38995       	77.598724      	77.44462       	76.14135       	81.0305        	79.33623       	84.1371        	92.63827       	51.128742      	92.69522       	86.60122       	92.65563       	85.999         	92.50054       	88.66109       	92.57149       	88.983505      	91.73096       	92.617714      	87.35227       	92.65773       	79.834496      	79.18318       	76.60325       	79.96927       	
92.27274       	85.11823       	91.897125      	92.43516       	92.28235       	87.75348       	92.29538       	92.32326       	88.002235      	92.47746       	92.312294      	89.65081       	92.389626      	76.554474      	92.359474      	76.80105       	78.199196      	78.13827       	75.57637       	74.38369       	73.471176      	76.04809       	80.84981       	80.331985      	75.73686       	77.64696       	75.55877       	88.53731       	92.17241       	85.9196        	92.25221       	89.862434      	92.27759       	90.0763        	92.27122       	88.75462       	88.50058       	82.79424       	76.27277       	77.66739       	80.14072       	77.44609       	78.32325       	76.38015       	78.9818        	77.43052       	75.90228       	79.040955      	78.06648       	76.8758        	76.3753        	79.17832       	73.89918       	77.48233       	81.34394       	90.385864      	88.81097       	88.33324       	56.19114       	92.383095      	89.8192        	86.96448       	91.906265      	82.5057        	77.42339       	75.55196       	78.02789       	78.60847       	72.78058       	78.31769       	78.98826       	77.562515      	74.65891       	80.3557        	80.31642       	78.16365       	78.88052       	78.76633       	75.32171       	77.857086      	75.24133       	76.87101       	92.18611       	92.371216      	91.46024       	89.798325      	92.04924       	92.600296      	81.25937       	92.66253       	84.469925      	92.62902       	88.403336      	92.72614       	80.20614       	92.59059       	78.28171       	75.99189       	77.58495       	77.18785       	
92.19391       	89.61918       	92.32468       	92.31208       	92.22471       	89.612526      	92.492485      	92.32168       	85.76598       	92.45465       	89.261116      	92.33172       	92.33198       	74.162834      	92.384254      	89.46773       	91.48556       	77.2303        	75.06963       	75.40745       	80.4365        	79.536476      	77.7208        	80.04263       	79.647575      	72.61626       	92.30041       	88.71275       	92.26688       	89.234924      	92.406296      	90.85826       	91.807365      	92.25702       	88.465515      	92.25172       	88.444374      	91.7516        	91.21061       	80.88763       	76.62549       	77.769585      	77.81504       	75.5176        	79.49112       	61.959568      	89.05562       	79.90808       	90.00898       	84.48724       	76.894005      	77.69408       	80.36228       	80.980965      	91.6141        	91.79049       	88.849525      	92.444916      	89.31982       	92.503006      	85.804306      	92.30324       	81.75159       	76.9658        	76.91848       	77.64166       	79.41462       	76.121735      	76.76166       	78.764305      	75.623634      	75.39655       	79.57543       	77.52541       	79.861626      	78.806145      	78.88932       	79.1731        	79.62013       	76.6715        	77.00933       	77.74336       	80.9832        	91.73779       	81.87321       	78.401886      	91.910675      	85.966194      	76.94752       	91.67656       	86.5353        	75.76551       	80.022446      	90.52731       	78.76996       	78.24038       	75.22805       	78.81432       	81.2365        	78.585526      	
46.911938      	91.96292       	92.391556      	92.25466       	86.12818       	92.46875       	92.35886       	88.63875       	92.44934       	92.25537       	90.87786       	92.229256      	76.372765      	92.35881       	87.57821       	92.306816      	74.59219       	80.99074       	78.05293       	76.147705      	76.27368       	78.76046       	80.64286       	79.532875      	90.983215      	85.188995      	82.4621        	92.04923       	87.19584       	81.806625      	92.39412       	89.465805      	91.91889       	91.87066       	86.30901       	92.21818       	76.23802       	80.03783       	78.4468        	78.6822        	76.624405      	75.17046       	76.2648        	75.99963       	76.6429        	75.66754       	77.74594       	75.66486       	76.569855      	77.82148       	74.81968       	78.455246      	91.859726      	86.27566       	92.23068       	80.50211       	85.11886       	86.990524      	92.27588       	87.67148       	92.518486      	81.86338       	77.51267       	79.97157       	75.76735       	76.63893       	77.83065       	75.266365      	78.60805       	77.80293       	75.8247        	78.01141       	79.00467       	78.94465       	79.71201       	79.70068       	77.08026       	79.59499       	79.73239       	76.67356       	74.68993       	76.388176      	80.86384       	92.55469       	87.5782        	85.7541        	91.92297       	88.80621       	92.65496       	88.09206       	92.71104       	89.60016       	92.76221       	89.094         	92.5928        	78.288155      	78.87575       	80.428185      	79.87044       	82.57575       	
87.71896       	92.49689       	92.41289       	92.11716       	85.5734        	92.42726       	92.25583       	89.010086      	92.41297       	88.91155       	92.26709       	92.22029       	86.945724      	92.28938       	87.117485      	87.36047       	78.82047       	74.56543       	78.41496       	74.838104      	78.01689       	79.009735      	80.22669       	81.6796        	80.02945       	77.1393        	75.628426      	79.04493       	81.13151       	91.33488       	92.329384      	87.389946      	92.36188       	91.00108       	90.91965       	92.3294        	78.61007       	77.27549       	77.8081        	78.38443       	77.50314       	92.12838       	76.60975       	75.465454      	80.35344       	75.865364      	77.05884       	76.35838       	74.314064      	79.71033       	78.920105      	77.98199       	79.24944       	90.00107       	92.43422       	83.40174       	90.09687       	76.981064      	92.424545      	86.05257       	92.363754      	79.96801       	76.7134        	78.24653       	77.26816       	80.414185      	79.48881       	78.224686      	77.43428       	79.16722       	79.888145      	80.31929       	77.94575       	77.32799       	79.55593       	78.5204        	78.66975       	79.68644       	77.33817       	76.57108       	78.332344      	77.3403        	75.29605       	78.67522       	91.14393       	86.634926      	82.46928       	92.41341       	91.02879       	92.46095       	81.749756      	92.55418       	78.08623       	76.8131        	79.365776      	79.61312       	78.28633       	79.19087       	78.08913       	79.92018       	
92.35281       	92.3911        	92.30424       	89.5245        	92.43366       	92.36925       	87.908844      	92.42589       	89.953156      	90.89917       	92.34919       	81.74611       	76.936844      	78.48965       	76.639626      	77.85157       	79.33631       	77.722         	77.02867       	78.33966       	79.229675      	75.85143       	78.146484      	78.680954      	78.541695      	78.0762        	76.55468       	79.14821       	75.16439       	75.12932       	78.87362       	80.16816       	79.43834       	77.82477       	77.41232       	79.93376       	79.594894      	82.40303       	79.072136      	79.66872       	91.967445      	79.565926      	77.8061        	78.309875      	77.97907       	76.302574      	80.13079       	76.16124       	77.5858        	78.999115      	76.472984      	73.604935      	92.14759       	76.22551       	83.68186       	85.9853        	79.73905       	91.88271       	88.2808        	80.57217       	74.57962       	78.800476      	76.83199       	78.767914      	76.37714       	78.44228       	76.99062       	78.71448       	78.07435       	77.19903       	78.857124      	76.85441       	76.38256       	80.046265      	77.84261       	78.76464       	79.464745      	78.257515      	75.923325      	78.09791       	77.11566       	77.0531        	78.22792       	77.9882        	92.579414      	79.24908       	77.57255       	60.887897      	89.81465       	80.265         	76.27872       	77.76273       	79.15605       	78.05831       	79.18059       	80.30716       	80.60483       	79.99644       	77.11149       	74.90636       	
92.54894       	92.4297        	92.34567       	86.558685      	92.49185       	92.426155      	89.09162       	92.24375       	92.386154      	89.13636       	92.41481       	92.24753       	74.24133       	78.41518       	74.401535      	74.55728       	78.32476       	77.33327       	77.39262       	76.18          	78.38387       	79.63433       	77.44072       	77.68054       	78.24162       	76.293816      	74.73004       	78.04228       	78.62213       	78.54059       	92.469925      	90.39291       	89.77518       	91.443115      	90.640114      	92.34402       	89.732376      	79.84253       	79.65432       	78.110634      	79.46366       	75.923706      	78.75224       	78.271614      	77.45774       	77.56346       	78.90967       	76.64631       	76.226425      	77.87634       	78.28615       	78.905495      	79.503685      	79.78975       	75.11417       	79.82448       	78.496666      	81.79707       	78.17827       	78.118744      	80.30898       	78.91411       	77.57657       	77.62268       	78.208206      	79.373024      	76.06466       	78.83534       	78.78287       	77.263985      	77.88641       	77.51177       	78.88594       	78.57764       	76.42734       	78.581894      	77.95181       	79.18485       	78.10026       	78.206184      	77.35927       	79.01324       	76.551865      	79.46344       	77.82888       	77.33503       	78.42422       	79.70616       	78.57904       	77.09469       	77.28814       	80.58783       	79.09502       	78.99532       	77.38371       	82.44025       	78.22611       	81.473816      	77.687515      	79.89027       	
92.23074       	91.163         	92.64128       	92.58569       	92.47202       	92.321106      	85.16598       	92.544685      	92.39491       	88.259056      	92.35661       	92.40601       	85.834785      	92.00407       	92.236015      	76.26587       	77.11704       	80.950516      	78.14028       	77.01664       	74.96025       	79.409134      	75.264046      	76.17982       	76.56591       	76.94982       	79.530846      	91.783         	92.373184      	89.27446       	92.455696      	86.38111       	92.22516       	92.381065      	87.54599       	92.517075      	86.69188       	91.87967       	92.362236      	87.35026       	83.30769       	77.82074       	73.57135       	77.1408        	81.304596      	78.627174      	79.21007       	76.129425      	73.498955      	79.04759       	78.43266       	75.98222       	75.32921       	75.78978       	77.614334      	92.057304      	80.65364       	90.54094       	77.29969       	81.52752       	80.2225        	80.156654      	76.49632       	78.72786       	78.62186       	75.84435       	77.31346       	75.557335      	78.14592       	78.52123       	79.63499       	78.16024       	78.06646       	79.9435        	80.68465       	77.99064       	80.30019       	77.67892       	77.08173       	78.255936      	76.76429       	77.94385       	76.35557       	77.036575      	79.51896       	77.45913       	75.50535       	78.01433       	78.438225      	76.96971       	78.157265      	77.6591        	78.26084       	79.88182       	80.495094      	82.24113       	80.20803       	81.41516       	81.253         	76.740906      	
92.61658       	92.49517       	92.4149        	85.04547       	91.44992       	92.6185        	92.510605      	92.35735       	90.51685       	92.501335      	92.39863       	92.27331       	91.163345      	92.470375      	92.29842       	76.632416      	92.28776       	78.44683       	76.708015      	77.18697       	79.166565      	77.89071       	79.02171       	77.24143       	76.94087       	76.75759       	87.01747       	92.43304       	86.08676       	92.42084       	92.35216       	90.738815      	92.48032       	85.77501       	92.63837       	92.507324      	85.52764       	92.628746      	92.418976      	91.06231       	92.37564       	79.36703       	78.21331       	76.696815      	77.74012       	78.106865      	76.55371       	76.6954        	77.16533       	75.93169       	75.44646       	78.42368       	77.62031       	79.026085      	77.157936      	92.159546      	86.617836      	87.65855       	88.192276      	90.981804      	88.54959       	76.57345       	76.588684      	81.45832       	76.35029       	80.76097       	76.03303       	81.22188       	77.12131       	80.153786      	77.0273        	75.43215       	77.29601       	77.40571       	77.261055      	79.15703       	78.85518       	76.52524       	75.43526       	78.13725       	77.52908       	79.73912       	79.6938        	76.53988       	76.84176       	75.886185      	77.97293       	76.229805      	78.58141       	76.95715       	79.242035      	76.765465      	78.571014      	79.41147       	81.22397       	77.4766        	79.94302       	82.2938        	78.40311       	80.708534      	
76.57978       	92.592125      	92.68075       	92.601         	92.48334       	92.325096      	90.79347       	92.66584       	92.53038       	92.36505       	85.453094      	92.64961       	92.49832       	92.33124       	85.85569       	92.5253        	92.36191       	88.695175      	92.42377       	92.26176       	75.21725       	78.96683       	80.493         	79.922356      	77.48179       	77.58067       	72.24952       	92.44431       	86.543335      	92.42701       	89.51757       	91.70811       	92.51436       	90.13717       	92.71138       	92.53487       	85.944664      	92.74256       	90.74847       	91.95665       	89.691315      	78.52735       	81.063416      	78.41601       	81.4542        	78.17608       	78.95555       	78.201866      	76.76123       	76.92963       	77.46552       	78.02271       	77.72899       	77.2845        	80.1574        	76.90662       	82.035774      	79.59528       	78.36516       	81.60662       	79.80558       	78.200294      	78.13354       	77.87304       	77.36872       	77.6534        	77.59411       	79.656876      	79.52371       	78.343094      	79.58643       	77.4838        	78.108315      	77.89061       	79.67097       	77.05227       	76.881615      	79.68511       	76.07815       	79.293465      	78.47218       	77.872         	80.20001       	79.76101       	74.83178       	77.41316       	78.02211       	78.20054       	76.85251       	76.57553       	79.23949       	77.60441       	78.79446       	79.22298       	80.10259       	79.371346      	80.76467       	81.92809       	79.56231       	80.57692       	
70.49935       	92.67459       	92.681244      	92.57247       	92.45767       	92.31546       	91.326996      	92.6703        	92.534294      	92.37397       	85.92023       	92.675995      	92.537315      	92.3521        	90.045425      	92.6181        	92.453285      	88.96005       	92.51926       	92.38182       	83.9084        	92.42511       	84.87341       	81.14584       	78.30796       	75.50335       	79.15283       	92.41995       	88.22515       	92.017296      	92.431404      	90.125824      	92.49397       	85.2411        	92.64282       	89.874794      	92.59899       	92.467926      	75.11353       	92.07726       	90.028496      	92.34407       	77.06069       	80.95403       	78.496315      	77.346794      	80.66974       	76.359726      	75.489105      	76.38454       	79.95565       	75.20375       	79.393654      	77.49314       	78.042336      	80.41857       	79.30249       	78.85785       	79.75245       	75.19757       	81.07824       	80.00912       	77.18628       	76.35069       	79.36029       	75.4385        	78.30307       	78.12139       	78.51965       	78.535706      	78.56758       	77.07968       	79.88033       	77.224724      	79.793434      	79.61685       	77.792534      	78.48084       	79.685         	79.68432       	76.677315      	79.360405      	77.825455      	78.34942       	79.83232       	76.45053       	78.422775      	77.52087       	78.87972       	75.46077       	77.95269       	78.642235      	80.27084       	78.65324       	79.75911       	80.95142       	80.036644      	80.59646       	79.90684       	79.96907       	
92.46315       	92.34523       	89.466064      	92.37878       	92.71605       	92.58803       	92.49105       	92.31558       	89.909836      	92.72453       	92.58189       	92.411995      	87.70128       	92.692085      	92.5804        	92.37879       	90.001595      	92.57865       	92.47096       	92.2608        	88.8224        	92.4874        	92.29554       	91.13537       	92.41938       	88.155945      	92.48778       	85.362595      	92.05909       	92.37826       	91.74487       	92.512726      	65.81797       	92.634254      	84.518684      	89.019966      	92.760925      	92.52838       	91.338455      	92.59542       	91.320656      	92.544365      	72.73424       	77.84175       	77.71404       	79.70481       	79.871635      	81.50737       	77.35074       	77.92004       	77.60042       	79.18777       	80.30936       	78.67452       	78.769325      	77.17004       	77.7737        	76.378174      	77.3384        	74.41116       	77.242645      	78.364265      	81.06925       	78.63422       	78.18574       	78.49942       	78.25518       	79.03762       	78.782814      	77.88709       	78.48094       	79.14172       	80.65827       	75.725494      	77.64923       	79.28817       	78.87149       	77.65763       	79.8117        	78.85016       	78.10461       	78.64932       	79.586845      	80.23001       	79.12836       	77.97936       	77.602516      	78.45631       	78.09006       	78.44917       	78.574425      	77.29518       	80.10575       	78.93286       	79.72623       	80.18424       	79.86215       	79.39487       	80.22693       	80.68511       	
86.407715      	92.83633       	92.76864       	92.65398       	92.54851       	92.39012       	90.289314      	92.78458       	92.64885       	92.49407       	92.311554      	90.35809       	92.70473       	92.53013       	92.360916      	76.607124      	92.73642       	92.59          	92.39215       	81.44782       	92.59848       	92.38918       	88.693436      	92.595375      	92.38666       	88.60857       	92.62122       	92.433266      	87.734055      	92.563194      	88.10182       	92.28323       	92.56829       	88.4441        	92.729706      	89.63439       	92.59965       	92.683395      	86.03472       	92.76264       	92.6068        	86.28491       	92.63231       	70.93507       	92.55913       	74.273636      	78.53712       	79.25496       	78.934364      	77.071945      	77.91446       	78.65844       	78.3498        	78.86147       	76.08968       	78.57843       	76.27657       	79.4709        	76.37392       	78.1361        	76.90155       	79.32189       	78.10796       	77.64576       	78.496376      	77.773094      	78.259796      	79.41424       	78.827545      	78.73154       	79.071266      	78.24272       	77.82299       	78.01093       	78.59369       	78.6486        	78.27574       	79.405174      	79.01508       	80.91498       	76.496         	79.0075        	79.32093       	78.97428       	78.093445      	77.39883       	75.99676       	77.94151       	79.623985      	77.78444       	77.67224       	79.01979       	79.63849       	78.15384       	79.94389       	80.94765       	80.28764       	78.32164       	81.86667       	79.589806      	
92.86803       	92.75719       	92.681046      	92.56497       	92.43516       	90.43096       	92.73134       	92.72639       	92.59459       	92.39208       	86.62894       	92.75696       	92.62699       	92.452576      	92.08293       	92.31452       	92.69042       	92.51968       	92.29962       	90.89184       	92.64893       	92.47772       	88.08154       	92.701485      	92.56345       	91.231064      	91.88446       	92.518425      	90.43362       	92.56904       	92.475         	88.041855      	92.54355       	87.85673       	92.7703        	92.57893       	90.20845       	92.828125      	92.62306       	90.8598        	92.61987       	83.51955       	92.573715      	88.166435      	92.65336       	86.86911       	91.224785      	77.62241       	73.287506      	79.48305       	78.94413       	78.088806      	79.128174      	76.55458       	78.911545      	77.89913       	77.327446      	77.48824       	76.50092       	76.952835      	76.56978       	79.40842       	77.987144      	78.97531       	79.698746      	78.44385       	79.18402       	80.24445       	77.58706       	78.4297        	79.218216      	79.42066       	77.022736      	79.419685      	77.08434       	79.704765      	77.689415      	80.02099       	79.56204       	80.05317       	80.79141       	76.88906       	79.75926       	78.054634      	77.50955       	78.53315       	76.26581       	77.903404      	78.17247       	78.39153       	77.37626       	77.53709       	78.56343       	78.874275      	81.07748       	75.99257       	82.82688       	81.611595      	80.82114       	79.7726        	
92.60757       	92.454735      	92.36961       	89.283134      	92.215706      	92.79949       	92.68097       	92.50816       	92.32693       	87.6771        	92.83212       	92.628815      	92.433655      	86.43318       	92.59373       	92.74721       	92.52751       	92.33182       	90.84462       	92.700584      	92.46777       	90.35262       	92.48226       	92.64333       	92.41268       	91.37342       	92.6314        	87.925026      	92.523674      	92.382355      	88.89159       	92.56609       	86.87093       	92.7303        	86.54347       	92.515236      	92.76819       	89.789604      	92.8621        	92.692566      	82.46167       	92.65986       	89.11757       	92.630554      	83.420364      	81.99985       	76.613884      	78.37799       	79.58741       	78.52235       	77.31243       	76.426414      	81.78252       	77.63301       	80.04044       	75.756256      	77.46052       	78.67278       	78.97923       	76.463486      	77.04925       	80.14007       	76.45251       	80.581726      	79.64637       	77.00934       	80.01006       	78.75358       	78.1721        	78.64304       	78.57091       	79.52704       	78.56747       	78.66718       	79.27794       	77.577255      	77.48265       	77.49824       	78.5656        	80.43706       	81.07217       	82.24656       	76.365746      	79.35346       	78.35357       	77.156265      	79.99314       	79.55126       	78.690025      	78.27857       	77.63034       	76.47879       	76.49457       	80.02568       	78.86108       	80.06956       	77.29872       	79.15112       	79.53753       	80.094734      	
92.50627       	92.36366       	86.97          	92.756775      	92.98561       	92.84175       	92.6745        	92.469505      	86.61269       	92.70243       	92.604164      	92.4438        	92.273575      	86.97731       	92.8068        	92.6411        	92.46739       	89.116234      	92.70111       	92.55526       	92.385925      	92.15718       	92.58048       	92.79275       	92.56738       	85.334946      	92.51318       	92.624886      	89.69185       	92.61934       	92.638275      	86.11528       	92.69516       	92.54451       	90.077286      	92.69804       	86.26023       	92.136024      	92.79194       	87.989075      	92.7191        	88.865105      	92.65414       	69.28759       	89.824005      	78.35781       	77.3483        	78.19128       	79.525185      	77.95704       	78.5654        	78.72425       	79.2238        	77.37482       	78.737434      	77.966606      	78.12907       	78.7591        	78.684875      	76.41883       	79.39774       	79.75319       	77.63476       	78.772644      	78.917656      	78.285545      	79.70674       	78.3785        	77.73237       	78.849625      	79.05068       	79.119995      	78.446465      	77.91221       	79.12411       	78.115135      	79.14828       	78.645935      	79.48858       	79.68102       	78.074936      	79.266594      	79.548416      	79.46256       	77.48791       	78.65368       	78.36154       	79.38895       	79.403305      	80.771385      	77.87562       	79.99756       	78.08442       	79.77374       	80.04962       	79.167404      	80.12386       	80.10235       	79.18414       	79.40827       	
92.77598       	92.6228        	92.50753       	92.35666       	87.57372       	92.95342       	92.82955       	92.66594       	92.46796       	88.97363       	92.79696       	92.80064       	92.59371       	92.37446       	87.14898       	92.80203       	92.62498       	92.45424       	89.77616       	92.91626       	92.78729       	92.58932       	87.24353       	92.391624      	92.72191       	92.51566       	87.96956       	92.76326       	92.571045      	85.65352       	92.798195      	92.643074      	86.02024       	92.81457       	92.6189        	91.564415      	92.87967       	92.696815      	86.44523       	92.822685      	92.64322       	90.67542       	92.5463        	78.55144       	78.39175       	80.781586      	78.35198       	78.59402       	79.48354       	78.92313       	78.341324      	78.748985      	79.22558       	78.68288       	78.102745      	77.87378       	78.41815       	79.55504       	77.886505      	78.28186       	78.622955      	77.059814      	79.4959        	78.91419       	78.88321       	79.402214      	77.94094       	77.5826        	80.41141       	78.512596      	78.7565        	79.19806       	79.11189       	78.63536       	78.73823       	79.326935      	79.15399       	80.168724      	79.64884       	78.842094      	79.19109       	79.147575      	79.32499       	78.85635       	77.8161        	78.83787       	79.29862       	78.28896       	78.99299       	79.64201       	79.29618       	77.71688       	79.26451       	79.855194      	79.62265       	80.11574       	80.151566      	79.56529       	79.92449       	79.06634       	
72.229774      	92.94664       	93.01469       	92.90541       	92.74791       	92.56085       	92.36653       	91.210335      	92.9351        	92.746864      	92.54969       	92.30978       	91.91164       	92.644585      	92.54216       	92.33885       	78.946144      	92.90668       	92.745964      	92.55594       	89.41038       	92.91349       	92.7875        	92.62034       	90.45129       	92.81428       	92.7092        	92.47715       	91.085785      	92.70918       	92.14697       	91.73484       	92.7605        	92.55062       	91.101166      	92.862816      	92.662415      	87.17218       	92.8656        	92.711754      	78.33236       	92.75452       	88.23256       	92.69654       	90.13144       	92.58119       	81.611565      	78.74252       	77.44479       	80.10571       	78.7067        	75.30217       	78.77769       	75.24798       	78.18972       	79.420525      	80.13775       	75.75218       	77.92192       	79.642136      	75.75092       	78.40069       	78.8709        	79.45386       	79.02434       	78.41592       	78.66633       	78.97262       	78.82187       	79.22189       	78.94346       	77.27181       	79.604965      	80.282745      	75.89342       	78.44928       	79.9071        	79.52397       	79.17013       	78.506325      	80.6787        	78.9834        	77.69425       	79.378815      	77.73872       	79.47523       	78.81314       	79.98513       	78.86085       	78.31778       	78.69567       	77.528         	78.37277       	78.875916      	79.270546      	80.356674      	80.531456      	78.65279       	78.87979       	79.83019       	
92.67542       	87.22116       	92.0911        	93.07939       	92.97027       	92.80242       	92.62362       	92.43196       	89.29457       	92.90184       	92.72776       	92.52469       	92.30268       	92.45341       	92.766556      	92.58176       	92.3376        	86.02929       	92.849495      	92.76376       	92.534485      	82.744286      	92.92341       	92.76759       	92.5529        	78.96411       	92.97528       	92.81733       	92.60443       	82.40495       	92.851944      	92.68141       	85.33157       	92.88546       	92.721085      	85.87326       	92.64706       	92.778305      	92.60342       	91.50909       	92.78254       	87.75295       	92.17666       	92.24651       	73.86976       	78.08349       	76.94341       	80.18168       	75.53512       	77.28113       	79.5762        	76.539856      	78.80112       	78.397575      	77.44666       	77.28021       	78.816925      	78.94818       	77.57514       	80.41089       	77.92926       	77.349106      	77.88412       	78.432014      	79.22111       	78.47017       	78.2598        	79.61163       	77.49872       	78.648506      	78.85737       	79.845085      	79.68477       	78.37746       	79.62977       	78.88336       	78.55293       	80.143486      	78.822716      	78.67074       	79.70542       	79.164024      	78.12785       	78.87592       	78.26491       	78.58573       	78.79529       	79.2728        	78.88622       	79.28421       	78.410645      	79.46364       	78.37389       	80.06688       	79.335976      	80.12775       	80.43105       	80.18958       	78.84673       	78.73268       	
92.644356      	88.980736      	92.81021       	93.03319       	92.91434       	92.76479       	92.514496      	87.36686       	92.94461       	92.7895        	92.58239       	92.35496       	89.18812       	92.8184        	92.64114       	92.40872       	86.711845      	92.934525      	92.76856       	92.54848       	90.0258        	92.91553       	92.84371       	92.65867       	90.14443       	92.78626       	92.782364      	92.553795      	89.60674       	92.86421       	92.708565      	90.28194       	92.86352       	92.76763       	92.6025        	90.73241       	92.79042       	92.64641       	92.18125       	92.77104       	92.51821       	91.774994      	92.79988       	92.64044       	91.48873       	92.65394       	74.49433       	92.60452       	87.39326       	89.229385      	77.14005       	78.4806        	78.43273       	79.13237       	76.88231       	76.095345      	78.996414      	77.34778       	79.637695      	78.06663       	80.67374       	76.98974       	76.901344      	77.84299       	80.82479       	76.74818       	79.26696       	77.80438       	79.12526       	78.48775       	78.49898       	79.04847       	80.47429       	78.022125      	78.43796       	78.27282       	79.683846      	78.79927       	78.51487       	79.35215       	80.27716       	77.68028       	78.06486       	77.84334       	79.14331       	78.93012       	80.01924       	79.43199       	77.98208       	78.13386       	79.224         	79.10008       	79.08672       	80.70505       	79.04501       	79.78517       	77.499374      	78.47827       	80.40285       	76.831924      	
91.69221       	93.000305      	92.88431       	92.70197       	92.394485      	91.53138       	92.93796       	92.75316       	92.53379       	86.609634      	92.715546      	92.68705       	92.49993       	92.263         	81.5767        	92.905716      	92.72976       	92.5273        	89.51679       	92.79632       	92.80096       	92.641136      	86.96037       	92.93151       	92.88237       	92.6955        	87.74182       	92.89712       	92.85868       	92.66733       	88.54009       	92.882805      	92.73143       	92.548935      	92.24863       	92.80238       	92.60089       	83.22644       	92.77363       	92.629395      	77.34095       	92.67548       	92.56254       	85.69603       	92.78488       	92.64841       	83.44563       	92.38855       	87.70271       	92.4544        	87.398056      	92.24001       	75.87944       	78.11824       	76.56839       	79.18154       	75.33728       	78.85367       	78.54962       	78.90384       	75.91521       	75.67069       	81.354385      	75.38668       	78.58846       	78.4259        	80.06603       	74.56081       	77.32204       	74.01009       	78.737144      	80.22387       	77.50418       	79.42399       	80.83838       	77.3045        	77.4321        	78.21572       	78.71243       	83.27281       	80.51293       	78.353134      	77.56674       	77.0704        	79.95587       	78.908264      	79.65676       	80.56309       	79.54057       	78.376564      	78.68537       	79.248436      	79.42627       	79.560715      	80.51896       	79.24304       	80.062935      	79.62519       	77.35829       	77.00529       	
92.9668        	92.80394       	92.69883       	89.99774       	92.924034      	92.889046      	92.735306      	92.51058       	88.141396      	92.73847       	92.5191        	92.37827       	89.55745       	92.82539       	92.79999       	92.626465      	92.40072       	91.54258       	92.897804      	92.748344      	92.544495      	87.46927       	92.90113       	92.7637        	92.54916       	88.387         	92.937         	92.77821       	92.598755      	91.50903       	92.856995      	92.736984      	88.058334      	92.59625       	92.79986       	92.59985       	77.19444       	92.78457       	92.61418       	87.20164       	92.80734       	92.69338       	80.248726      	92.84562       	92.68829       	87.515175      	92.70851       	85.767426      	92.0954        	91.734955      	90.98984       	87.72642       	77.92306       	79.75329       	80.26992       	78.267654      	78.96948       	76.63574       	79.76787       	79.48366       	78.86391       	78.60956       	78.77951       	78.58813       	77.30098       	80.00556       	78.482086      	76.60484       	78.32577       	78.92146       	78.88368       	78.54095       	77.61669       	79.696754      	80.23408       	78.37372       	78.28851       	78.197136      	79.65938       	78.39912       	78.88536       	80.22823       	77.295395      	80.05524       	78.94161       	77.89092       	78.069695      	78.35537       	80.967705      	78.87794       	78.03481       	78.88278       	79.68441       	80.24685       	78.887115      	80.02901       	77.02193       	77.41823       	75.1284        	80.00805       	
87.874565      	93.10758       	93.03652       	92.91397       	92.75066       	86.4875        	92.97998       	92.88061       	92.660446      	92.44161       	87.53746       	92.916306      	92.77427       	92.56238       	86.6744        	92.86544       	92.87029       	92.69939       	92.47702       	91.479256      	92.87969       	92.72953       	92.52016       	90.8267        	92.93044       	92.81308       	92.61352       	91.39274       	92.896194      	92.74557       	92.57774       	91.666725      	92.815796      	92.68148       	90.5034        	92.78448       	92.66633       	90.07101       	92.76971       	92.643814      	79.78827       	92.80257       	92.64248       	77.02352       	92.79046       	92.631874      	89.92163       	91.5728        	78.34098       	76.10423       	89.73189       	78.45558       	77.327576      	82.05391       	75.0524        	80.32607       	81.038315      	79.308426      	78.449196      	75.88622       	77.94537       	77.708534      	76.54006       	74.54748       	78.772316      	79.05784       	79.348495      	77.593315      	78.576866      	78.65387       	79.61229       	79.780785      	79.026276      	80.40977       	78.96298       	78.32393       	79.31204       	75.07067       	76.70331       	77.77038       	79.21583       	79.30896       	78.27911       	77.36686       	78.1184        	80.093735      	80.82464       	79.07302       	78.72901       	80.50289       	79.53344       	79.148         	80.442986      	79.460434      	80.833954      	78.06031       	78.76888       	80.621414      	79.16277       	77.20529       	
93.023796      	92.86121       	92.75318       	85.97015       	92.06885       	92.989914      	92.83561       	92.67642       	89.78031       	92.82624       	92.931885      	92.75309       	92.533424      	89.30213       	92.97645       	92.87357       	92.67798       	92.45569       	92.2874        	92.915794      	92.76206       	92.553246      	88.17394       	92.491104      	92.37209       	92.28743       	77.21884       	92.750534      	92.61081       	92.46439       	79.91143       	92.84661       	92.743965      	92.582855      	92.2937        	92.74331       	92.59035       	76.876945      	92.747734      	92.58638       	85.248764      	92.81428       	92.66986       	85.74927       	92.75718       	92.643         	87.783165      	92.64617       	88.67148       	92.48729       	78.72515       	78.920494      	77.84723       	79.35036       	76.25665       	77.04601       	73.531685      	79.71142       	79.75202       	77.514595      	78.42803       	81.02543       	74.503654      	78.79013       	79.66863       	79.882095      	81.533485      	79.41033       	79.65256       	80.14939       	78.19948       	79.25072       	79.7711        	79.51047       	78.02427       	77.60361       	76.36296       	76.743095      	79.327446      	80.12745       	79.01865       	80.62487       	77.86427       	76.92285       	79.77044       	81.54124       	79.114136      	77.07884       	79.176445      	78.72336       	80.18976       	79.629196      	80.82195       	79.01419       	79.5008        	78.518135      	78.02498       	79.24847       	77.56695       	78.26682       	
92.46007       	90.89088       	93.09223       	93.039444      	92.91691       	92.75307       	92.535866      	90.83762       	93.003265      	92.848755      	92.65227       	88.757034      	92.83926       	92.88063       	92.73311       	92.528435      	89.28675       	92.95884       	92.828964      	92.6538        	87.403694      	92.93243       	92.847565      	92.70519       	89.87933       	92.84395       	92.86786       	92.715775      	90.61022       	92.89333       	92.81          	92.6575        	80.52496       	92.81175       	92.65676       	88.44733       	92.75757       	92.64453       	88.18272       	92.789604      	92.65523       	88.25418       	92.84961       	92.71565       	86.89439       	92.69275       	92.5581        	76.546906      	77.4592        	79.840614      	79.90452       	79.52868       	78.83171       	78.00232       	77.42522       	74.401474      	79.03452       	77.8123        	80.01819       	77.732376      	79.26118       	78.297104      	77.38288       	78.38526       	76.492775      	75.28374       	77.61667       	79.91136       	79.77486       	78.71313       	78.52838       	78.79406       	80.179726      	77.13267       	78.342964      	79.96699       	77.769714      	80.86248       	78.40566       	79.82709       	78.60471       	77.19454       	76.97165       	78.924164      	78.661674      	78.50911       	79.29188       	79.806404      	79.372055      	79.42427       	79.68732       	79.83347       	80.50261       	79.496994      	79.189095      	78.516975      	78.57245       	78.58917       	79.009735      	92.18926       	
92.66627       	86.73784       	91.11298       	93.06649       	92.99563       	92.86617       	92.71115       	90.34259       	92.777336      	92.955986      	92.80663       	92.58476       	87.3279        	92.946945      	92.85404       	92.68476       	92.48148       	92.67286       	92.90327       	92.779816      	92.602104      	89.441635      	92.94511       	92.80988       	92.642365      	72.65435       	92.74888       	92.576485      	92.535995      	87.47659       	92.89623       	92.78014       	92.62929       	81.800446      	92.83007       	92.69208       	87.57066       	92.72541       	92.73702       	90.473366      	92.36062       	92.77765       	92.58594       	91.2901        	92.77066       	87.44785       	92.20706       	92.58798       	87.48355       	92.585846      	86.65736       	92.1679        	80.610374      	80.908104      	77.58374       	74.37653       	80.3713        	76.608635      	78.61673       	77.669464      	80.79568       	79.61378       	78.246         	80.163475      	91.956764      	89.04276       	84.13758       	78.18655       	78.33969       	78.76529       	80.15342       	76.84562       	77.55579       	81.96885       	80.6842        	76.210915      	78.44055       	79.11996       	78.67303       	79.80731       	78.1722        	78.67196       	78.1597        	79.05148       	79.89559       	79.118416      	79.9341        	79.37403       	79.044334      	79.00082       	79.93017       	79.88742       	80.268875      	80.57899       	78.48933       	78.76051       	77.54825       	77.79369       	77.146194      	92.395004      	
92.88289       	92.736176      	92.61071       	89.36135       	92.93935       	92.965454      	92.83807       	92.623856      	79.45813       	92.98693       	92.8908        	92.70772       	89.48636       	92.39843       	92.91661       	92.779915      	92.59075       	78.765594      	92.97118       	92.84844       	92.69347       	87.730484      	92.93311       	92.86255       	92.70046       	90.18916       	92.87379       	92.774376      	92.60748       	89.58074       	92.90969       	92.750496      	92.585365      	91.0694        	92.851234      	92.69699       	89.34706       	92.56504       	92.78662       	92.61645       	83.7394        	92.85573       	92.69559       	85.58334       	92.517395      	92.483345      	87.53445       	92.52587       	87.14677       	90.69891       	92.37202       	89.89548       	89.53289       	74.19915       	79.189896      	77.4423        	79.60627       	77.30776       	79.412506      	78.544525      	76.79453       	82.12323       	78.73321       	77.784996      	82.25047       	77.7207        	77.53062       	78.78026       	78.26941       	77.633934      	78.828674      	78.92029       	74.60779       	78.050804      	81.430504      	77.630875      	79.303665      	80.633575      	81.54689       	77.98499       	79.54028       	77.9782        	76.98          	80.90521       	78.85297       	79.187004      	77.479034      	78.35406       	77.59607       	76.90661       	81.670944      	79.583786      	80.728264      	82.085266      	77.69405       	77.07161       	77.648705      	87.21257       	92.36444       	84.273285      	
92.70255       	88.156044      	92.17759       	93.01363       	92.90964       	92.791115      	92.61071       	78.15653       	92.981255      	92.83973       	92.6619        	90.56598       	92.96822       	92.89753       	92.737946      	92.42701       	92.78981       	92.94051       	92.78097       	92.60204       	89.03287       	92.940475      	92.82552       	92.63507       	88.18955       	92.91329       	92.78932       	92.621086      	89.708244      	92.87815       	92.708595      	90.97084       	92.47473       	92.8685        	92.69525       	85.49689       	92.76366       	92.735466      	92.57488       	82.43156       	92.84539       	92.69353       	85.57006       	92.367065      	92.72741       	92.56927       	83.71237       	92.541336      	87.03121       	92.49964       	92.51218       	83.96539       	92.50535       	60.909664      	88.76575       	77.35315       	79.03747       	78.28979       	76.404434      	79.332535      	78.285126      	74.02212       	77.09056       	78.62435       	80.55561       	74.451744      	79.549644      	78.18079       	77.79156       	78.08273       	78.539505      	81.96355       	80.29386       	77.38216       	80.80534       	77.45577       	79.921486      	79.31633       	76.34737       	77.90006       	79.27507       	79.45901       	79.962265      	79.76265       	79.72694       	79.98141       	79.3578        	78.13263       	79.80953       	76.77035       	79.29799       	80.32924       	79.85443       	80.54304       	77.46626       	77.830826      	75.78369       	92.43753       	88.32721       	92.452354      	
87.65456       	92.3273        	93.019295      	92.95248       	92.812004      	92.681656      	87.061165      	92.969055      	92.86465       	92.69038       	89.32889       	92.49919       	92.89869       	92.77658       	92.60011       	90.53694       	92.89993       	92.7972        	92.60748       	89.372025      	92.89093       	92.7534        	92.586         	91.2888        	92.87648       	92.74285       	92.28286       	92.2686        	92.853455      	92.69572       	86.59013       	92.410034      	92.86252       	92.684105      	91.9333        	92.43038       	92.85209       	92.69459       	90.11697       	92.80561       	92.804344      	92.626595      	90.47514       	92.83758       	92.61732       	85.54775       	92.63937       	92.54253       	85.97759       	92.61587       	91.28223       	91.38476       	92.49624       	81.09093       	80.30013       	91.27478       	84.308624      	78.61574       	78.690994      	78.819855      	78.039955      	81.05193       	77.992546      	79.498055      	76.896706      	77.994446      	79.6865        	78.096176      	78.62881       	76.243484      	81.79966       	78.85601       	79.23045       	78.18129       	78.95201       	77.30664       	80.01807       	78.32022       	81.18114       	79.08713       	77.57918       	80.72842       	80.45764       	77.66831       	78.31249       	78.95757       	79.48528       	77.82937       	78.99855       	79.575584      	78.08021       	80.91616       	80.00709       	77.09786       	80.44476       	78.08438       	73.719185      	92.450806      	86.558495      	92.04212       	
91.52971       	92.950615      	92.87946       	92.75532       	92.591576      	85.14051       	92.90478       	92.78657       	92.63534       	85.73427       	92.892456      	92.79349       	92.586235      	76.47317       	92.90313       	92.76409       	92.59613       	85.29116       	92.90924       	92.783195      	92.573456      	90.787476      	92.87462       	92.722855      	87.85973       	92.74229       	92.890236      	92.710754      	89.94702       	92.918304      	92.86315       	92.70182       	88.03392       	92.94354       	92.84864       	92.64073       	85.5988        	92.97219       	92.834625      	92.635124      	85.302246      	92.84152       	92.66678       	86.76872       	92.721985      	92.670815      	86.828964      	92.62071       	92.5764        	85.668236      	92.67127       	87.167625      	92.23921       	92.52811       	84.20277       	92.46239       	76.999245      	78.287796      	80.79271       	76.35768       	81.94664       	78.29005       	77.58986       	80.46198       	77.33277       	79.74366       	76.34065       	79.866135      	77.75132       	79.02071       	81.76226       	79.37287       	78.078125      	80.22846       	76.92369       	79.10843       	78.51418       	78.957275      	79.20036       	76.031296      	80.8039        	78.69407       	79.951355      	80.02169       	80.95076       	78.797676      	78.91966       	77.849045      	77.098656      	79.10491       	78.84175       	79.57565       	78.33511       	78.46456       	81.46192       	78.4985        	86.379555      	89.208755      	92.06435       	84.658844      	
92.83712       	92.721245      	92.61173       	89.60171       	92.81171       	92.87122       	92.70708       	89.52304       	92.82841       	92.73569       	89.13407       	92.60603       	92.747215      	92.59607       	91.522064      	92.77831       	92.61275       	81.866005      	92.86793       	92.709915      	88.580795      	92.650856      	92.85665       	92.70145       	88.74096       	92.79255       	92.72313       	92.56594       	89.815544      	92.94361       	92.78124       	92.59132       	89.00175       	92.975655      	92.77044       	92.59454       	86.1719        	92.87017       	92.7205        	92.46941       	91.50202       	92.6988        	92.52479       	88.370995      	92.52823       	92.74811       	92.51996       	90.19562       	92.68706       	88.69071       	92.21806       	92.52645       	88.39725       	92.600296      	88.955185      	92.59377       	92.45688       	77.55537       	78.990295      	79.6324        	78.181656      	79.7833        	81.22237       	78.96294       	78.953674      	79.29367       	80.00659       	77.45183       	80.349976      	77.63924       	79.18766       	79.58571       	77.460205      	79.17928       	80.558556      	78.20168       	78.0724        	79.03143       	79.60316       	77.984825      	78.61453       	78.80367       	81.10125       	79.81019       	80.22548       	79.32485       	80.31147       	77.83648       	80.77892       	79.914536      	77.344536      	79.50351       	80.652245      	77.606186      	79.04108       	78.218925      	78.215805      	78.2634        	81.630264      	79.10843       	
92.84092       	92.74112       	92.64399       	88.15901       	92.51888       	92.77113       	92.62966       	90.40197       	92.57339       	92.54901       	88.38524       	92.519714      	92.52796       	90.66336       	91.546425      	92.415985      	92.31659       	84.75479       	92.67529       	92.56114       	85.78893       	92.65197       	92.81132       	92.63792       	89.60626       	92.87391       	92.66835       	87.9203        	92.94473       	92.83369       	92.65059       	78.62788       	92.97137       	92.804955      	92.58056       	90.58716       	92.94202       	92.77358       	92.438896      	92.623276      	92.938194      	92.76566       	85.569664      	92.76025       	92.75887       	90.64817       	92.147934      	92.73011       	92.49493       	90.27243       	92.62149       	85.67193       	92.55179       	92.56176       	87.7451        	92.6744        	88.45081       	80.21398       	92.52141       	82.244545      	77.22657       	92.33685       	81.03142       	76.94263       	77.07156       	81.45188       	80.70497       	79.34931       	80.667984      	77.351616      	79.0953        	78.90139       	79.47724       	78.798004      	79.442345      	77.37444       	78.42313       	80.06467       	78.54248       	78.695206      	92.36453       	81.49975       	75.91719       	77.568634      	80.03242       	79.263855      	79.460815      	79.333176      	77.02032       	77.5638        	79.33322       	78.795845      	79.439255      	78.29665       	78.53861       	77.392235      	77.62984       	76.95847       	75.58076       	78.342094      	
92.5958        	87.80514       	92.56486       	92.69077       	92.56298       	85.4217        	92.71211       	92.59459       	87.753174      	92.64998       	92.528175      	90.36155       	92.68671       	90.569695      	91.96698       	92.66859       	90.25544       	92.385506      	92.6012        	85.7196        	92.37913       	92.75897       	92.59048       	91.46455       	92.79021       	92.60819       	82.62655       	92.92576       	92.73595       	87.97539       	92.609146      	92.88996       	92.73452       	85.915306      	92.994804      	92.93391       	92.73512       	85.687256      	92.925964      	92.92564       	92.69636       	90.481865      	92.96909       	92.79295       	92.564316      	91.10056       	92.81231       	92.60147       	87.83786       	92.74433       	92.517624      	90.42974       	92.715225      	87.86319       	92.47016       	92.7137        	86.46366       	92.73416       	90.242134      	79.016106      	79.596985      	92.459625      	77.85402       	78.94422       	81.23028       	80.47391       	78.205666      	79.66856       	77.59436       	79.06627       	79.47806       	77.79973       	79.76425       	75.88244       	80.37346       	84.852104      	92.396286      	86.40862       	92.3817        	89.94453       	92.43282       	91.45722       	91.660934      	92.36666       	86.21896       	92.34197       	86.14578       	91.94356       	76.078835      	77.86595       	78.64455       	81.50636       	77.878235      	78.75041       	77.39311       	76.711975      	78.36682       	76.014565      	92.274124      	86.64671       	
59.89048       	92.344765      	92.64658       	92.436386      	81.97751       	92.64626       	92.47013       	87.389114      	92.5719        	88.94264       	92.3321        	89.900955      	92.11703       	91.58149       	91.7471        	92.59847       	85.32943       	92.53482       	92.64681       	87.012924      	92.530495      	92.49366       	87.89059       	92.67383       	92.60157       	92.23783       	92.415855      	92.91255       	92.736885      	79.850395      	92.963         	92.78178       	92.558014      	90.27069       	93.0436        	92.876526      	92.648056      	90.6645        	93.02183       	92.82332       	88.56457       	92.97889       	92.948616      	92.73573       	85.71713       	92.97075       	92.78377       	92.57398       	91.366066      	92.82578       	92.58102       	87.662384      	92.72182       	92.3811        	92.07042       	92.72054       	88.84563       	92.43446       	92.413765      	88.85971       	92.65357       	90.884125      	91.27192       	92.48547       	80.89455       	92.38269       	81.76015       	76.11232       	78.83822       	81.1357        	83.59667       	78.42857       	80.39929       	77.79385       	59.826294      	92.48452       	86.43136       	92.44504       	92.32796       	91.48076       	92.42836       	88.78321       	92.495804      	92.289635      	88.34301       	92.442604      	86.24154       	92.35328       	92.263824      	89.490974      	92.38449       	85.31627       	92.145805      	92.12909       	79.04457       	83.08073       	92.22016       	84.514366      	92.3903        	89.81279       	
89.07355       	92.51401       	87.37096       	89.13333       	92.61605       	88.2554        	92.179504      	92.52397       	71.74571       	92.55301       	86.055984      	92.50325       	89.39403       	92.55359       	86.63275       	92.42993       	87.850685      	92.587204      	92.609406      	85.70857       	92.62353       	92.57315       	85.24924       	92.592514      	92.513145      	85.01022       	92.68675       	92.55603       	92.492065      	80.236595      	92.87211       	92.706535      	92.53607       	79.56473       	93.05909       	92.89989       	92.664986      	72.59977       	92.77854       	92.72995       	92.582596      	72.710236      	93.11139       	92.95052       	92.727936      	78.94712       	93.003845      	92.823654      	85.214066      	92.59075       	92.82691       	92.58201       	89.90205       	92.76201       	92.22301       	91.9896        	92.63316       	86.98677       	92.72946       	89.64035       	92.37458       	92.52422       	79.965645      	92.57353       	85.980675      	92.464935      	92.40248       	88.3873        	92.405174      	80.822136      	79.764946      	77.50331       	88.156364      	92.53386       	92.300865      	90.93823       	92.482155      	90.10373       	92.5002        	92.42744       	85.65229       	92.30591       	92.16229       	85.72256       	92.500916      	92.34552       	89.56395       	92.46762       	92.25812       	90.77409       	92.43856       	92.2259        	90.46862       	92.439384      	92.17715       	91.16047       	92.30418       	85.38071       	92.3233        	56.51061       	
76.64743       	80.81581       	78.745186      	76.45478       	76.2006        	79.07516       	92.2176        	91.26205       	91.82976       	87.360085      	92.18239       	85.79681       	92.285774      	81.944664      	81.42922       	92.342476      	86.63643       	92.61412       	92.41792       	91.49627       	92.57574       	89.50891       	92.72322       	92.572174      	78.70118       	92.88262       	92.71718       	84.8604        	92.593056      	92.71301       	92.61834       	89.5081        	92.93154       	93.02956       	92.835785      	92.16189       	92.04549       	93.06467       	92.88335       	92.66005       	89.48795       	93.14566       	92.91454       	92.701515      	88.06907       	93.004776      	92.77735       	85.096176      	92.49941       	92.885574      	92.66688       	86.28311       	92.88109       	92.668724      	87.5661        	92.60974       	92.41941       	90.19163       	92.73199       	86.56292       	92.61658       	92.63035       	86.188354      	92.68243       	92.49969       	89.050514      	92.597084      	86.80685       	92.51578       	92.49154       	86.06448       	92.55747       	88.93728       	92.55456       	92.525604      	89.250435      	92.46036       	92.5043        	85.15197       	92.32789       	92.577255      	92.38102       	87.11913       	92.57755       	92.3992        	77.82717       	92.56365       	92.3889        	85.32974       	92.60131       	92.413734      	88.284096      	92.53896       	92.42985       	88.85717       	91.75988       	91.990135      	82.78174       	92.412605      	87.27612       	
79.98042       	78.49167       	76.77123       	75.270195      	78.67291       	77.0504        	90.5961        	92.45025       	70.98615       	75.31144       	77.81129       	77.63866       	79.47619       	77.67271       	74.86492       	74.12521       	92.46628       	85.86597       	92.53494       	89.32746       	92.71441       	92.572556      	90.26467       	92.80792       	92.637085      	85.029335      	92.99353       	92.8742        	92.667694      	85.78396       	93.08958       	92.92726       	92.70743       	83.22483       	93.12938       	92.989136      	92.77817       	90.660255      	93.072235      	92.89564       	92.68304       	91.11233       	93.15367       	92.96652       	92.753235      	88.538284      	92.82049       	92.65394       	87.76903       	92.790276      	92.935234      	92.7245        	85.35819       	92.95415       	92.76649       	89.00229       	92.757225      	92.54662       	83.67584       	92.66092       	85.661194      	92.56481       	92.60463       	86.2487        	92.79815       	92.60677       	42.322556      	92.79236       	92.59112       	86.20054       	92.65308       	92.53504       	88.01702       	92.75086       	92.61065       	92.361946      	90.63656       	92.67829       	92.48524       	89.89265       	92.694885      	92.565636      	92.30334       	91.24369       	92.57797       	92.386635      	87.25161       	92.619736      	92.43703       	85.05383       	92.65431       	92.48502       	92.303696      	88.703316      	92.47172       	92.2438        	89.12738       	92.53072       	92.32751       	89.60813       	
79.531204      	79.08922       	79.55932       	79.58854       	75.60918       	76.57197       	76.81583       	76.53721       	75.39582       	76.96727       	77.47729       	77.00059       	77.16043       	74.41671       	76.736         	78.20165       	75.672195      	77.06099       	91.95698       	87.641785      	92.365746      	92.62309       	89.15456       	92.885765      	92.71588       	89.06673       	93.03805       	92.89959       	92.679794      	84.64179       	93.11521       	92.92221       	92.70188       	91.99823       	93.13044       	92.93557       	92.72393       	91.84006       	93.1405        	92.9729        	92.75442       	89.25882       	93.17935       	92.99625       	92.78202       	87.02939       	93.06437       	92.90545       	92.67798       	89.41948       	93.02498       	92.81911       	90.54163       	92.965645      	92.79018       	89.467636      	92.83775       	92.654396      	77.632866      	92.75854       	89.0331        	92.639404      	92.61139       	74.234924      	92.82445       	92.62262       	87.96898       	92.84147       	92.67476       	85.726814      	92.58731       	92.7518        	92.51565       	87.13392       	92.81608       	92.67069       	92.42414       	85.57072       	92.782074      	92.61968       	92.40772       	86.14654       	92.68982       	92.52957       	85.723526      	92.22519       	92.66595       	92.486115      	87.75037       	92.68653       	92.5786        	92.37568       	88.1858        	92.67158       	92.504005      	92.257095      	90.98501       	92.5709        	92.36639       	87.839485      	
79.00959       	78.274284      	77.85567       	77.159996      	76.97779       	77.87824       	77.773224      	77.36006       	77.2306        	79.91825       	78.18479       	78.98913       	79.07104       	75.00947       	72.1673        	82.85673       	91.584564      	86.44695       	91.81483       	88.456985      	91.52315       	91.7642        	91.49039       	82.60368       	92.25173       	92.03885       	90.477         	91.63078       	92.214935      	91.992256      	91.68804       	92.13971       	92.48313       	91.90597       	91.469         	86.51415       	92.02882       	92.09168       	92.00585       	92.07004       	62.32756       	92.22392       	92.18502       	92.23945       	92.17434       	90.69169       	92.386345      	92.391495      	92.25667       	89.43655       	91.95238       	91.986946      	91.97356       	90.85374       	91.419556      	91.409676      	87.078804      	91.58573       	91.696945      	85.18344       	91.15566       	91.52548       	91.45956       	87.25707       	92.19975       	91.858635      	91.826324      	85.8997        	91.63267       	91.49843       	91.2887        	86.43234       	92.21416       	91.51683       	91.48444       	88.675934      	90.74879       	90.81983       	90.62757       	90.64845       	85.64237       	91.78921       	91.76293       	91.795906      	91.75238       	90.41862       	91.22439       	91.28066       	91.38973       	79.07978       	92.00386       	91.53047       	91.281265      	88.798935      	92.21493       	92.08649       	91.48448       	89.162285      	91.95732       	91.890465      	
80.22739       	78.83856       	78.51625       	76.29329       	77.34995       	77.40437       	77.08099       	76.71641       	76.48997       	78.18432       	77.85398       	80.29354       	79.064         	75.57219       	80.100136      	78.65781       	92.497         	89.04169       	92.47788       	89.75336       	92.214485      	92.60719       	92.45644       	85.87852       	93.01705       	92.8534        	87.1207        	92.96308       	93.07873       	92.87458       	86.718124      	93.17744       	93.1908        	93.089455      	93.00512       	92.71441       	82.58981       	93.14312       	93.02964       	92.90066       	92.72535       	82.934326      	93.08683       	92.92289       	92.82716       	92.630264      	77.892494      	93.17457       	93.07457       	92.877716      	89.71863       	92.969826      	92.82672       	92.657196      	90.432304      	92.59489       	92.60569       	92.41412       	87.35915       	92.64721       	92.590225      	85.02356       	92.63892       	92.894875      	92.747086      	87.53267       	92.851295      	92.89164       	92.720375      	89.71551       	92.65738       	92.87042       	92.71929       	92.51227       	86.90715       	92.596985      	92.55721       	92.37214       	89.56897       	92.85818       	92.7484        	92.55995       	92.3608        	89.836685      	92.73396       	92.60884       	92.42716       	90.88115       	92.73266       	92.57339       	92.39198       	92.19778       	92.475075      	92.27116       	92.01634       	89.907295      	92.528145      	92.50524       	85.29995       	92.22981       	
79.56556       	78.48582       	75.34093       	75.73678       	77.84262       	79.765656      	77.75891       	78.01297       	77.715416      	77.52719       	77.13779       	76.19422       	77.03192       	76.284355      	81.05538       	83.54518       	89.54623       	91.928154      	86.64136       	92.440094      	92.690575      	92.27971       	92.62957       	92.918594      	92.74266       	90.17671       	93.16088       	92.99656       	92.79973       	82.67211       	93.137764      	92.9273        	92.84342       	92.73071       	87.24606       	93.35435       	93.23285       	93.10735       	92.91547       	87.25181       	93.292015      	93.16544       	93.05348       	92.82933       	90.800026      	93.20775       	93.09148       	92.89019       	86.92191       	92.976074      	93.0175        	92.8517        	87.40664       	92.85686       	92.75154       	92.48856       	85.435585      	92.86758       	92.75362       	92.60069       	85.57859       	92.91891       	92.7562        	89.81129       	92.6306        	92.87763       	92.71972       	87.451805      	92.96607       	92.89346       	92.736244      	92.51441       	91.77074       	92.92519       	92.752785      	92.55586       	87.70265       	92.90913       	92.76772       	92.592705      	92.35479       	90.83732       	92.841446      	92.696625      	92.49921       	87.86514       	92.53978       	92.70973       	92.562584      	89.028404      	92.63372       	92.637344      	92.457664      	88.06498       	92.70887       	92.680115      	92.49835       	87.2938        	92.58383       	92.613914      	
79.43767       	78.727394      	77.3376        	78.18997       	78.16701       	78.30174       	79.1649        	78.02763       	77.30918       	77.18864       	77.93162       	78.5629        	79.442055      	76.99519       	75.948524      	80.02715       	60.418644      	92.09425       	77.37418       	90.352844      	91.6469        	91.680954      	86.03423       	92.41994       	92.17701       	92.04246       	89.42405       	92.82619       	92.38087       	92.182526      	91.700096      	93.05791       	92.769875      	92.49105       	78.06025       	92.50741       	92.43466       	92.51367       	92.55773       	91.35047       	92.647896      	92.706116      	92.73921       	92.58379       	88.92049       	92.54638       	92.490166      	92.408875      	89.88285       	92.31557       	92.373055      	92.29252       	86.62378       	92.36528       	92.32013       	92.245125      	85.9183        	92.329         	92.33844       	92.35021       	84.84974       	92.28289       	92.19997       	92.17735       	73.198944      	92.28991       	92.24366       	92.14823       	90.16723       	92.76114       	92.69565       	92.553154      	92.379         	92.29002       	92.87306       	92.72024       	92.53364       	87.121796      	92.89244       	92.789604      	92.58767       	92.38763       	83.94651       	92.871605      	92.72033       	92.559746      	86.44134       	92.23072       	92.71296       	92.52581       	85.49207       	92.4767        	92.61089       	92.42389       	91.990395      	91.999115      	92.64994       	92.47834       	90.63728       	91.737946      	
79.08913       	79.08101       	77.32159       	78.91879       	78.24232       	77.47406       	76.75936       	78.45758       	76.44514       	78.31503       	78.05266       	78.43669       	79.22787       	79.15521       	75.29389       	77.23237       	76.79097       	79.103905      	74.80275       	92.71497       	92.59654       	86.56696       	93.00135       	92.84721       	92.646454      	91.66771       	93.110146      	92.96233       	87.08302       	93.248405      	93.16797       	92.9958        	33.75005       	92.8815        	92.83121       	92.786835      	83.0087        	93.16184       	92.992935      	92.927414      	92.208664      	92.89423       	93.16737       	93.04517       	92.88828       	87.59053       	93.07078       	93.05292       	92.907326      	90.29402       	92.96166       	92.92534       	92.73207       	83.227905      	92.95943       	92.81267       	85.387024      	92.73029       	92.904335      	92.73481       	87.53          	92.880806      	92.85252       	92.66786       	84.79722       	92.95341       	92.87094       	92.7418        	89.34785       	92.84851       	92.9474        	92.76752       	92.56065       	85.5737        	92.96555       	92.81322       	92.603134      	89.97937       	92.505745      	92.84836       	92.68395       	92.49319       	87.3285        	92.797264      	92.79309       	92.63115       	92.48528       	84.826164      	92.8387        	92.67832       	92.5288        	92.339966      	90.67007       	92.70378       	92.56346       	92.35022       	87.04887       	92.70346       	92.57872       	92.39523       	
79.25869       	78.578224      	75.55121       	76.89021       	77.43105       	77.61457       	79.058784      	77.4611        	79.05873       	78.77823       	78.35488       	76.96159       	77.91671       	77.86299       	76.58196       	77.9622        	78.77106       	74.650665      	76.615265      	76.73809       	80.39899       	92.84234       	92.62219       	79.80335       	93.12867       	92.95564       	92.74599       	92.58482       	93.205925      	93.060196      	86.149826      	93.20654       	93.25674       	93.11473       	85.95273       	93.28149       	93.19342       	93.06732       	87.07403       	92.54562       	92.6649        	92.66835       	92.584366      	92.04367       	92.273155      	92.603424      	92.51331       	92.47242       	87.88613       	92.54521       	92.47805       	90.358665      	92.10022       	92.619705      	92.432724      	85.45076       	92.48109       	92.4942        	92.41659       	87.45034       	92.84091       	92.82871       	92.65402       	81.07634       	92.99194       	92.860664      	92.68445       	80.853264      	92.988716      	92.83422       	92.65725       	86.1816        	92.958496      	92.86348       	92.71053       	92.47995       	92.34703       	92.89154       	92.6799        	92.52208       	89.837         	92.88381       	92.75015       	92.607994      	92.44131       	84.511185      	92.85409       	92.75902       	92.586334      	92.43253       	87.51141       	92.77467       	92.64157       	92.46833       	92.27039       	91.437096      	92.63174       	92.47168       	92.259056      	86.36378       	
78.396835      	76.88233       	75.54829       	77.43737       	78.29984       	76.530174      	78.137634      	77.19216       	76.387955      	77.1663        	78.3887        	78.417274      	74.60491       	87.121635      	83.66345       	78.30713       	92.11695       	85.65154       	87.00748       	75.45769       	74.361305      	82.280846      	92.462135      	92.37012       	84.846         	92.53508       	92.62758       	92.605606      	89.09866       	92.705536      	92.79552       	92.65473       	91.50535       	92.93429       	92.93381       	87.70761       	93.13093       	93.17376       	93.07508       	92.9016        	91.70394       	93.15634       	93.03899       	92.91828       	87.49195       	92.64277       	92.706795      	92.6762        	92.6308        	82.08707       	92.99783       	92.85342       	88.7085        	92.47912       	92.77533       	92.61          	87.568565      	92.69577       	92.647514      	92.52634       	89.398796      	92.97912       	92.841125      	92.68897       	85.15586       	93.01228       	92.91251       	92.75258       	89.93652       	92.99482       	92.88746       	92.748795      	88.3306        	92.94493       	92.876305      	92.69074       	87.47689       	92.76614       	92.82576       	92.682755      	92.47177       	87.361145      	92.91622       	92.78565       	92.6573        	92.46246       	90.28196       	92.78265       	92.738846      	92.58181       	92.38726       	89.78203       	92.762         	92.64763       	92.459465      	92.24563       	90.16523       	92.65171       	92.460754      	92.255936      	
77.59318       	76.28977       	75.2052        	76.28012       	78.37757       	74.51673       	78.809105      	76.914085      	77.54486       	78.27419       	76.61478       	77.026886      	76.66508       	78.237564      	91.00234       	86.91692       	92.16884       	81.10898       	90.842186      	86.48489       	92.85117       	92.673706      	86.93015       	92.91748       	92.8585        	92.62067       	89.68038       	93.11032       	92.97138       	92.68675       	88.66257       	93.31225       	93.15708       	90.20426       	93.14299       	93.19552       	93.06002       	88.160484      	93.169495      	93.181564      	93.09354       	92.9243        	90.47441       	93.1441        	93.08546       	92.943726      	92.75259       	84.23892       	92.77366       	92.66961       	92.51769       	90.90846       	92.92105       	92.78254       	90.512054      	92.69518       	92.58889       	92.45231       	90.28322       	92.90715       	92.759926      	92.54082       	91.33786       	92.955765      	92.80167       	92.64277       	91.96542       	92.943         	92.7939        	85.09187       	92.89079       	92.933815      	92.76897       	92.58217       	90.77225       	92.96655       	92.828674      	92.61781       	85.199036      	92.93887       	92.820694      	92.653915      	92.4441        	86.09652       	92.84597       	92.79183       	92.64444       	92.49978       	92.26014       	90.95314       	92.72903       	92.560585      	92.376686      	88.263084      	92.58236       	92.630066      	92.467964      	92.27409       	86.2314        	92.74368       	
78.9194        	78.71191       	76.43483       	77.78222       	78.69493       	76.602356      	77.91291       	74.48396       	78.59375       	77.42411       	79.36322       	75.9223        	75.1743        	77.562614      	62.723377      	87.75686       	91.444214      	86.522865      	92.54908       	88.781006      	92.77372       	92.60947       	88.98487       	93.11224       	93.05404       	92.84601       	87.20545       	93.00727       	92.9957        	92.93031       	77.484055      	93.28397       	93.18852       	93.03516       	92.466255      	93.06724       	93.01289       	92.900696      	87.73732       	93.26793       	93.13408       	92.99625       	92.842964      	90.5011        	93.11213       	93.00111       	92.83434       	87.910095      	92.927475      	92.90063       	92.75388       	89.84251       	92.96385       	92.860275      	92.677         	88.100624      	92.632744      	92.58254       	90.12883       	91.96308       	92.68448       	92.564156      	89.857         	92.75887       	92.92385       	92.78399       	88.21019       	92.999504      	92.87815       	92.71173       	83.949776      	93.054436      	92.902306      	92.74796       	87.26219       	92.98447       	92.94446       	92.770355      	92.59351       	79.449066      	92.964455      	92.80573       	92.64754       	92.442894      	89.94362       	92.85106       	92.75496       	92.59157       	92.42621       	88.4911        	92.60322       	92.72501       	92.57311       	92.39062       	87.025154      	92.7575        	92.70698       	92.5273        	92.34429       	80.3743        	
79.44483       	78.016426      	78.02954       	78.34225       	77.66335       	77.3428        	76.77916       	76.057014      	77.82689       	76.80637       	79.01447       	78.04655       	77.691696      	78.49184       	76.444046      	87.036476      	89.489365      	91.98624       	89.44522       	92.13895       	88.00659       	92.65164       	92.455025      	90.35797       	92.59758       	92.83185       	92.67814       	87.79248       	92.8737        	92.811325      	92.71823       	77.00155       	93.27917       	93.1736        	93.05094       	85.443146      	93.31014       	93.20454       	93.0694        	92.92568       	92.01804       	93.12442       	93.011986      	92.883545      	91.26058       	92.36073       	92.83279       	92.699646      	92.54488       	86.4525        	92.945526      	92.8028        	92.64338       	92.22108       	92.86349       	92.70748       	88.0597        	92.92547       	92.82081       	92.61481       	69.789955      	92.63051       	92.50471       	92.428024      	91.67463       	92.798996      	92.67842       	88.4913        	92.989815      	92.88186       	92.697395      	83.85049       	93.07455       	92.924164      	92.752144      	90.41843       	92.996155      	92.90433       	92.729866      	92.55482       	88.398636      	92.94071       	92.78841       	92.6068        	92.427986      	87.072914      	92.61955       	92.717316      	92.58598       	92.42937       	91.687004      	92.074135      	92.388245      	92.30669       	92.19708       	86.873985      	92.53269       	92.71317       	92.56763       	92.36363       	
79.91732       	77.1445        	76.43823       	76.05102       	78.24621       	79.263985      	77.13901       	78.68802       	79.28759       	78.15977       	76.68685       	77.91983       	76.62891       	78.40064       	78.57764       	75.67375       	92.29291       	87.05439       	86.25767       	92.257164      	84.75306       	92.93488       	92.73955       	90.51112       	93.11296       	93.01597       	92.845795      	91.8824        	93.22135       	93.07944       	91.55855       	92.3025        	93.26696       	93.148384      	92.99579       	92.58595       	93.17742       	93.02557       	92.91386       	89.910324      	92.85248       	92.88122       	92.78693       	92.59527       	92.21994       	92.831085      	92.67974       	92.20023       	86.977554      	92.65387       	92.48344       	92.230316      	87.92338       	92.885376      	92.71359       	85.61185       	92.858826      	92.74569       	92.563576      	88.7393        	92.84536       	92.69598       	89.27697       	92.7141        	92.69212       	92.63275       	86.51513       	93.01221       	92.87782       	92.72483       	86.86339       	93.0617        	92.93364       	92.76101       	85.47144       	93.06096       	92.958015      	92.7682        	92.58027       	78.668434      	92.97809       	92.85452       	92.67671       	92.50605       	91.565025      	92.66917       	92.7574        	92.60674       	92.43989       	92.23442       	91.65498       	92.64881       	92.51495       	92.36616       	89.82008       	92.5636        	92.7432        	92.57953       	92.41239       	89.743904      	
79.63669       	75.36815       	76.91576       	77.83363       	77.031265      	77.91617       	78.05082       	77.90293       	78.57903       	76.7419        	80.23528       	78.041214      	76.81054       	76.99071       	77.58094       	77.82907       	92.50875       	87.30776       	92.568985      	89.94361       	92.72107       	91.35087       	92.348274      	92.73891       	89.107925      	93.02575       	93.09367       	92.94259       	87.94078       	93.23654       	93.13504       	92.964325      	87.27403       	93.33569       	93.197014      	93.038734      	84.98001       	93.17655       	93.044754      	92.942955      	83.26524       	92.79765       	92.826775      	92.73803       	92.4053        	91.88394       	92.99012       	92.8591        	92.67848       	79.50282       	92.90581       	92.772064      	90.364105      	92.5525        	92.7814        	92.66583       	85.106926      	92.87326       	92.71067       	92.33089       	92.12566       	92.8318        	92.6603        	89.55453       	93.01802       	92.89499       	92.74612       	87.534584      	93.06182       	92.93947       	92.75312       	90.339096      	93.085236      	92.98979       	92.80308       	88.938644      	92.9018        	92.923645      	92.77333       	92.582375      	89.60203       	92.92201       	92.78988       	92.6469        	92.48223       	92.27608       	91.69989       	92.72828       	92.559746      	92.41888       	92.18998       	91.64005       	92.74679       	92.58264       	92.41079       	91.81514       	92.42459       	92.756546      	92.613         	92.415985      	
75.25091       	73.17218       	73.74763       	78.66288       	78.64643       	77.98568       	76.25108       	79.15227       	75.8064        	79.88527       	78.76774       	76.395294      	76.904816      	77.41049       	77.96651       	92.094406      	88.40976       	92.481026      	85.64758       	92.15681       	90.88344       	92.08328       	92.845505      	92.61181       	92.183876      	93.00591       	92.87142       	87.38244       	93.21446       	93.097336      	92.92354       	91.043564      	93.20825       	93.076996      	92.94305       	92.51727       	93.19297       	93.08252       	91.19528       	89.80846       	82.51126       	77.696724      	79.51449       	82.71779       	92.98787       	92.86899       	92.72686       	90.25758       	92.90529       	92.78496       	92.64768       	85.08949       	92.80505       	92.637886      	87.98153       	92.76442       	92.70671       	92.50478       	90.07569       	92.79805       	92.63146       	87.30234       	92.87986       	92.840675      	92.671844      	86.70938       	93.00145       	92.9317        	92.755         	88.256744      	93.082245      	92.9703        	92.81548       	86.166306      	93.003716      	92.90719       	92.738556      	88.98101       	92.97701       	92.89403       	92.74166       	92.58844       	92.344406      	91.71382       	92.80125       	92.64613       	92.48734       	92.24182       	86.82306       	92.481186      	92.57841       	92.44467       	92.21369       	89.35845       	92.758736      	92.600914      	92.44199       	92.23905       	91.739586      	92.8336        	
78.38804       	77.352585      	76.31313       	74.18452       	92.43145       	87.117455      	91.93886       	88.446915      	81.103584      	78.71015       	75.89546       	77.79834       	77.18968       	77.92371       	76.87859       	73.55155       	91.73866       	86.48494       	77.01326       	77.02118       	79.51862       	92.27735       	92.64072       	87.85303       	92.959465      	92.951614      	92.78101       	91.714355      	93.1274        	92.97306       	90.56659       	93.21662       	93.10594       	92.948395      	91.627594      	93.15046       	93.01577       	87.93909       	93.06117       	92.917435      	89.04788       	84.87266       	81.20199       	82.37562       	92.48844       	92.42191       	92.286575      	80.97801       	92.52164       	92.503075      	92.288795      	89.10557       	92.35863       	92.29387       	79.45427       	92.69837       	92.492615      	82.98284       	92.381584      	92.288284      	91.71184       	91.91981       	92.827         	92.66924       	90.09521       	93.00424       	92.894775      	92.7284        	88.38202       	93.05398       	92.93255       	92.77094       	88.71454       	93.05536       	92.91785       	92.751884      	87.196         	92.91124       	92.75478       	92.58711       	90.331474      	92.89781       	92.73576       	92.581276      	92.39023       	88.748         	92.66056       	92.63883       	92.50127       	92.33538       	89.31973       	92.74636       	92.630684      	92.47645       	92.28274       	71.89698       	92.82465       	92.68601       	92.52128       	92.30907       	
68.42668       	92.27886       	90.670166      	85.99519       	92.53743       	77.47862       	76.73238       	79.960434      	77.966545      	78.384384      	78.52718       	77.35393       	77.10143       	78.329315      	78.829956      	74.77774       	78.91277       	77.45297       	77.96654       	77.5537        	46.721123      	92.71246       	90.58399       	92.79817       	92.89537       	90.039185      	92.903496      	93.02822       	92.875694      	91.524155      	93.12781       	93.003204      	87.7237        	93.211945      	93.069756      	89.453995      	93.07427       	93.05209       	92.82775       	89.115875      	85.39894       	77.845566      	92.984         	92.88525       	92.70486       	87.22789       	92.86994       	92.758804      	92.60381       	73.83285       	92.51419       	92.4154        	85.83216       	92.497574      	92.44462       	85.95302       	92.39059       	92.57442       	88.21027       	92.24297       	92.42565       	92.28258       	89.67009       	92.89298       	92.7324        	92.53572       	92.46718       	92.93898       	92.7935        	90.57685       	92.45402       	92.96574       	92.81635       	85.888535      	92.888084      	92.84559       	92.66135       	89.80959       	92.53468       	92.51581       	92.37426       	87.94571       	92.75784       	92.73788       	92.5865        	92.42907       	92.20806       	91.83197       	92.7196        	92.58447       	92.40024       	92.17648       	92.460945      	92.75111       	92.612915      	92.427864      	91.576935      	92.52389       	92.81669       	92.655594      	
