# www.neaspec.com
# Scan:	 	AFM
# Project:	 	20251007_PS
# Description:	 	
# Date:	 	10/07/2025 11:26:44
# Scanner Center Position (X, Y):	[µm]	49.99	50.01	 
# Rotation:	[°]	0	 	 
# Scan Area (X, Y, Z):	[µm]	5.000	5.000	0.000
# Pixel Area (X, Y, Z):	[px]	100	100	1
# Averaging:	 	1	 	 
# Integration time:	[ms]	5	 	 
# Laser Source:	 	4.5-15 µm nano-FTIR laser
# Detector:	 	R
# Target Wavelength:	[µm]	7.502	 	 
# Demodulation Mode:	 	Fourier
# Tip Frequency:	[Hz]	241,340.500	 	 
# Tip Amplitude:	[mV]	45.700	 	 
# Tapping Amplitude:	[nm]	83.227	 	 
# Modulation Frequency:	[Hz]	0.000	 	 
# Modulation Amplitude:	[mV]	0.000	 	 
# Modulation Offset:	[mV]	0.000	 	 
# Setpoint:	[%]	79.75	 	 
# Regulator (P, I, D):	 	4.206850	8.625812	1.000000
# Tip Potential:	[mV]	0.000	 	 
# M1A Scaling:	[nm/V]	0.426	 	 
# M1A Cantilever Factor:	 	1,000	 	 
# Q-Factor:	 	487.4	 	 
# Version:	 	2.1.11536.0
91.98058       	76.81543       	79.53728       	79.89822       	79.794785      	79.338715      	79.01289       	79.37591       	79.32724       	83.597466      	91.90118       	92.09197       	91.20764       	88.59828       	91.9891        	92.16046       	49.90798       	92.096985      	92.252335      	89.53917       	92.06215       	92.2812        	92.424995      	74.587494      	92.02418       	92.26206       	92.41968       	92.60954       	85.87091       	92.205154      	92.3927        	92.57057       	92.696014      	92.604256      	86.506546      	92.50917       	92.67698       	92.78216       	87.632645      	92.334625      	92.52363       	92.64522       	92.7247        	88.33657       	92.3979        	92.57311       	92.64608       	86.42687       	79.47709       	79.6763        	79.674034      	81.312675      	80.75983       	77.101         	78.57462       	81.64508       	79.453354      	80.772026      	80.025         	81.98472       	79.33833       	79.62915       	78.01522       	92.31149       	92.44612       	78.33238       	82.05152       	81.626755      	77.6619        	78.46351       	76.79969       	81.24203       	79.45444       	81.593506      	81.74945       	78.10269       	77.67824       	79.02705       	92.3125        	92.53226       	90.88433       	92.3678        	92.556885      	85.21332       	92.440956      	92.40314       	87.04725       	92.38551       	92.482254      	89.55564       	92.50718       	92.66882       	88.69958       	92.4713        	92.62144       	79.324104      	76.41534       	76.02501       	78.63303       	78.30928       	
78.82431       	79.23181       	77.06095       	81.3083        	78.94691       	78.274635      	79.61723       	81.06691       	78.21747       	81.088715      	85.76281       	91.917366      	92.11855       	92.04588       	89.79632       	92.03724       	92.222565      	89.20785       	92.08335       	92.29662       	92.37828       	87.634254      	92.169685      	92.30957       	92.48656       	75.62341       	92.102875      	92.30338       	92.465195      	92.61742       	88.83788       	92.35012       	92.530266      	92.6703        	92.76405       	88.88588       	92.43482       	92.60976       	92.69958       	92.74235       	87.076485      	92.38176       	92.53881       	92.64162       	92.67487       	84.92331       	92.35372       	92.49511       	83.22926       	76.476074      	82.23351       	75.64295       	79.26672       	79.144875      	80.735085      	80.83816       	78.34085       	82.99704       	83.37782       	81.802414      	81.687546      	78.2465        	91.50857       	92.06618       	87.22282       	88.257805      	79.24711       	79.43002       	77.80702       	78.12732       	81.61524       	79.20687       	81.490265      	78.248985      	81.76169       	92.43768       	92.064476      	86.41554       	92.54236       	92.71452       	82.419754      	92.44458       	92.61962       	92.751785      	90.23282       	92.578445      	92.75014       	92.50986       	90.12339       	92.60589       	92.77114       	84.85328       	92.510826      	92.674614      	79.31659       	80.051125      	77.883865      	77.93718       	81.833755      	80.74441       	
78.32388       	81.90443       	78.55201       	78.06451       	80.783325      	79.17089       	80.423164      	83.27901       	78.17772       	78.44153       	77.35163       	91.824684      	92.01987       	91.91738       	84.86086       	92.00343       	92.17695       	77.70078       	91.98746       	92.21228       	92.328766      	85.730835      	92.06182       	92.28921       	92.4124        	85.65591       	92.116806      	92.32388       	92.47855       	92.58561       	86.83863       	92.31843       	92.509674      	92.63665       	92.7465        	83.83374       	92.43867       	92.57812       	92.70197       	92.793465      	92.21579       	92.27365       	92.46307       	92.57727       	92.66978       	88.96812       	92.350494      	92.47947       	86.27412       	83.98312       	77.512085      	80.82261       	79.56446       	81.08459       	79.50224       	78.48985       	82.34508       	83.574165      	78.95167       	82.65572       	79.628334      	83.550644      	85.005486      	92.33616       	78.44586       	78.930916      	78.84682       	76.22223       	80.07          	80.79924       	81.17741       	78.83179       	78.0597        	80.88288       	82.29508       	79.58025       	91.75515       	87.69976       	92.331436      	92.57777       	92.688614      	87.83251       	92.48148       	92.67853       	84.6445        	92.435356      	92.612144      	91.13236       	92.415886      	92.576485      	92.69748       	87.23831       	92.484726      	92.5972        	73.11592       	92.19024       	92.03448       	75.99754       	80.03084       	78.91289       	
80.94902       	81.05965       	80.801414      	78.78907       	80.6394        	79.69313       	78.933876      	81.99611       	80.18931       	80.089264      	81.84118       	88.42433       	91.86979       	92.011284      	89.36707       	91.91482       	92.11335       	87.874626      	91.91386       	92.11461       	92.1752        	84.94757       	92.03867       	92.21371       	92.33744       	85.95302       	92.102425      	92.28975       	92.438805      	92.146355      	85.80071       	92.35526       	92.49999       	92.603676      	92.6409        	86.062584      	92.524414      	92.58538       	92.51201       	92.496994      	89.79829       	92.38779       	92.51815       	92.62418       	91.69306       	92.12572       	92.40441       	92.53953       	81.34918       	79.75403       	82.332985      	80.837364      	79.506165      	77.76146       	78.317245      	79.00591       	78.57145       	80.175995      	83.97506       	80.46747       	82.61334       	81.51341       	81.58379       	78.06969       	82.95948       	81.8058        	77.28025       	80.547226      	78.44396       	80.870026      	80.059235      	78.83904       	79.9651        	79.95101       	79.30316       	79.4633        	77.76316       	76.01288       	83.405785      	92.40838       	92.593346      	88.28188       	92.32918       	92.56478       	92.12538       	90.25645       	92.51151       	92.47411       	78.87805       	76.41451       	89.25441       	92.56825       	91.91364       	81.01208       	79.52551       	78.01225       	80.76175       	77.66239       	77.09612       	78.09499       	
80.64458       	81.038025      	81.96927       	80.446655      	80.62284       	80.043205      	79.89073       	78.88828       	80.38273       	80.45452       	80.454384      	80.50529       	80.71277       	82.51159       	78.00111       	91.80482       	91.27637       	86.995766      	92.02249       	91.34997       	91.8953        	92.122475      	92.1423        	88.80544       	92.13521       	92.35714       	91.877205      	91.91519       	92.24751       	92.43956       	92.45579       	89.34504       	92.40855       	92.57958       	92.6829        	91.330475      	92.183205      	92.3352        	92.45702       	92.504364      	90.122185      	92.32492       	92.42253       	82.08512       	92.33738       	92.46872       	91.00171       	80.2119        	81.72055       	81.643555      	79.63178       	79.519035      	79.31736       	80.424805      	80.96305       	80.94542       	81.25283       	78.46712       	81.39448       	82.81207       	83.50125       	81.11698       	82.653595      	82.13417       	82.054695      	80.18469       	79.85922       	79.78336       	79.9134        	81.69168       	80.7628        	79.79739       	79.83171       	82.26762       	80.94701       	78.99157       	80.8346        	77.85138       	80.34462       	81.85458       	92.381775      	92.5462        	84.84469       	92.39234       	92.58163       	84.63613       	92.398964      	92.55631       	76.81971       	92.493355      	91.957184      	83.381294      	79.8173        	77.42359       	78.79633       	77.13771       	80.57459       	78.61835       	81.34955       	82.17213       	
80.60977       	82.14655       	81.01886       	81.2129        	79.72357       	80.916245      	80.66811       	79.88926       	79.99567       	80.95264       	80.49422       	80.13884       	80.837         	82.21203       	80.76027       	78.34854       	82.400116      	80.71271       	80.84644       	76.73333       	82.536064      	81.7587        	91.7976        	91.83748       	82.286476      	91.73277       	91.95059       	92.112         	89.388115      	92.214554      	92.41374       	92.52172       	92.52671       	88.53879       	92.34967       	92.48529       	92.550385      	89.161934      	92.41818       	92.54793       	92.61546       	86.31851       	92.40569       	92.531555      	89.192566      	91.88918       	91.77741       	75.29843       	92.02687       	91.8716        	81.310455      	80.952576      	79.859146      	77.13069       	80.13921       	80.41941       	80.70602       	78.713806      	80.511406      	80.81573       	83.15322       	81.47247       	81.79916       	82.07884       	81.9957        	79.1792        	81.648796      	79.53741       	78.682526      	81.23329       	81.443954      	80.60685       	81.79225       	80.55021       	78.13784       	81.53547       	81.20822       	80.70282       	80.88627       	80.94807       	79.17788       	84.25164       	92.44456       	92.57067       	85.34755       	92.52991       	92.26271       	85.773544      	92.56264       	91.846436      	85.02369       	80.45698       	79.14833       	74.02977       	76.63216       	82.0613        	81.457664      	80.339325      	82.02864       	81.638695      	
79.43913       	82.84036       	81.67418       	81.05005       	80.520645      	80.638596      	80.51425       	80.01698       	80.169464      	80.31265       	79.66067       	79.91856       	80.76563       	81.313866      	79.50624       	80.443855      	81.115456      	81.34901       	80.66372       	81.164505      	81.8825        	80.753494      	79.96621       	91.81262       	92.04594       	92.20036       	73.56441       	92.110596      	92.30835       	92.45529       	92.26945       	92.06553       	92.33288       	92.48267       	92.55057       	89.13017       	92.367035      	92.508675      	92.54782       	86.49172       	92.41161       	92.52735       	84.94236       	92.31175       	92.43166       	81.58142       	78.653755      	92.33212       	92.44325       	80.1713        	78.47018       	79.39409       	78.73858       	81.171         	79.39149       	80.505104      	80.8534        	80.030304      	78.028885      	83.094055      	82.37285       	80.63799       	81.959274      	80.10721       	81.71303       	80.92938       	80.33129       	81.5071        	79.37943       	82.43633       	80.642624      	79.734566      	81.17829       	79.99922       	80.10887       	80.31096       	80.10225       	81.51599       	77.50275       	78.85241       	80.91249       	86.808495      	92.49815       	92.47871       	86.423004      	92.53278       	92.39863       	85.88207       	92.51283       	91.685524      	91.5167        	92.49382       	76.10209       	82.15819       	77.016205      	79.37095       	79.44323       	80.44108       	83.86311       	82.723785      	
79.55982       	82.01135       	81.56267       	80.919945      	79.84799       	81.62671       	80.91603       	80.02742       	80.67551       	78.902794      	80.174515      	80.60187       	80.25998       	80.78629       	80.871895      	80.70041       	82.12271       	81.456764      	80.055885      	81.0472        	80.31316       	80.08873       	82.130226      	79.72317       	77.92798       	91.645996      	91.80389       	91.837395      	89.528114      	91.99253       	92.20359       	92.3806        	90.94459       	91.21238       	92.35373       	92.50509       	92.105934      	91.79904       	92.43473       	92.53837       	80.80301       	83.14335       	86.1205        	92.413445      	86.03128       	81.01068       	77.178116      	85.10483       	92.300865      	92.39002       	78.3035        	81.194786      	80.5753        	79.8848        	85.42358       	92.3738        	91.83873       	78.49439       	78.41355       	81.32453       	78.74087       	81.50544       	81.373764      	80.55473       	80.761696      	78.99256       	80.00608       	79.582794      	82.267525      	79.69456       	79.028854      	80.72338       	80.15972       	81.63267       	79.59886       	79.194824      	80.35588       	80.75306       	79.45084       	79.955894      	79.9084        	78.10186       	78.889946      	83.904594      	92.383354      	92.566826      	86.389595      	92.445984      	92.61748       	86.288055      	92.48714       	92.37994       	87.61064       	92.5459        	81.46552       	73.1462        	80.86195       	80.36653       	83.16893       	82.30998       	
79.63298       	82.249176      	80.4921        	80.749664      	82.410934      	80.18006       	80.2069        	81.02822       	80.193184      	79.74432       	80.515785      	79.72764       	80.95942       	80.84103       	80.10471       	81.32177       	81.80491       	79.90189       	81.116486      	81.03747       	81.885216      	81.95225       	83.01056       	80.45204       	79.31345       	78.34977       	81.58796       	81.466125      	80.39503       	87.116684      	91.91585       	91.97586       	91.64937       	87.35838       	92.350586      	92.48842       	92.499664      	85.90505       	92.35579       	92.475716      	91.78381       	81.22955       	79.44392       	78.6252        	79.09761       	79.017586      	78.05569       	83.12792       	92.322464      	92.44907       	80.20808       	83.454765      	80.65101       	80.379074      	79.85861       	78.34979       	82.48664       	79.34008       	78.709         	82.22068       	79.07188       	80.00165       	82.714424      	80.910805      	81.685295      	82.066475      	81.675255      	81.747345      	81.67474       	80.84345       	80.2219        	82.387505      	80.10429       	81.10852       	80.56048       	80.0153        	79.88471       	80.19027       	79.68197       	81.47568       	80.33498       	81.30494       	80.22613       	80.2546        	81.30066       	80.52306       	82.25713       	92.37846       	92.55517       	78.48757       	77.71275       	79.41503       	80.2986        	81.13013       	78.58031       	80.56172       	81.60683       	81.93581       	82.8806        	82.42077       	
81.41387       	80.58585       	82.75539       	80.37266       	80.66224       	80.34627       	80.80066       	80.825035      	80.30284       	80.63229       	79.766235      	78.81805       	81.09102       	79.068184      	82.526764      	81.27954       	80.35436       	81.974236      	79.70086       	83.32259       	79.70338       	82.13886       	81.04598       	82.32465       	81.381836      	79.395935      	79.50885       	81.26142       	81.145355      	81.51608       	86.59388       	92.058266      	92.12619       	85.83022       	92.29833       	92.43895       	91.73665       	85.3591        	92.29519       	92.379395      	82.29858       	80.50498       	82.69119       	82.64002       	80.65791       	78.49118       	80.69184       	81.845474      	92.28854       	92.412346      	66.560814      	82.4243        	82.08602       	79.63935       	80.20079       	75.98361       	81.654144      	80.55          	79.17178       	78.45065       	79.96941       	82.87678       	78.521645      	83.3           	82.140205      	80.63842       	82.481415      	81.89329       	80.45976       	78.59377       	81.789536      	81.35141       	81.89678       	80.25389       	81.23516       	79.9818        	80.17302       	80.20345       	80.46174       	79.596375      	81.484085      	81.64508       	79.86718       	81.237206      	80.27171       	81.91991       	81.64715       	82.776764      	80.30743       	81.14991       	80.316055      	81.38273       	81.33619       	78.955475      	79.48542       	80.44692       	83.72663       	82.17103       	81.80532       	83.62532       	
80.59537       	81.73132       	81.99533       	80.25648       	80.69071       	80.05377       	80.7371        	79.99076       	79.67661       	78.923515      	79.61623       	81.60104       	81.21516       	79.48808       	81.73037       	81.27919       	81.08727       	80.425804      	81.555916      	80.7174        	82.054184      	82.846725      	82.633644      	79.18232       	78.32849       	78.92369       	78.04828       	91.90257       	92.06021       	92.0332        	87.448814      	91.853065      	91.76337       	88.9338        	91.98897       	92.146904      	91.141         	92.09943       	92.16788       	91.74763       	78.73871       	81.24248       	82.54487       	83.431335      	80.6234        	78.917114      	79.147575      	80.47809       	85.188995      	92.25558       	92.140976      	87.49028       	92.29764       	92.0287        	89.59624       	92.43142       	90.443184      	92.196754      	92.391945      	88.90559       	92.25342       	92.131744      	86.988335      	92.38095       	80.305504      	78.648605      	82.28258       	80.73671       	81.943565      	76.15917       	81.921265      	81.4684        	80.17655       	80.07989       	81.468216      	80.62303       	80.21739       	80.47326       	81.17339       	80.30688       	80.47586       	81.508156      	81.31131       	80.71255       	80.40305       	82.24406       	80.97974       	80.20313       	82.68266       	82.941216      	82.55098       	79.73948       	79.60254       	80.68708       	80.26575       	81.747826      	82.67801       	82.04543       	83.2599        	84.37464       	
80.757614      	81.88269       	81.134445      	79.86732       	80.43159       	80.60797       	81.18069       	79.98879       	80.14168       	79.98929       	81.14873       	80.907524      	80.92938       	78.92157       	78.649895      	80.104996      	81.46721       	80.57735       	79.6712        	79.73481       	79.5178        	82.18932       	79.75348       	91.9051        	80.83114       	76.668175      	91.89707       	91.86047       	86.30865       	92.089676      	92.240234      	47.583206      	91.80527       	91.890434      	87.07127       	92.06438       	92.133644      	89.80547       	92.02174       	92.05576       	83.73475       	82.59423       	82.04732       	82.51578       	81.61573       	85.54785       	92.23853       	91.12111       	92.1666        	92.33353       	91.968834      	89.300186      	92.349655      	92.48119       	88.8047        	92.330124      	92.510124      	89.74367       	92.25269       	92.43214       	80.886795      	92.19873       	92.40298       	88.94133       	92.25852       	92.46041       	82.537415      	80.13947       	74.887856      	78.43379       	80.70673       	81.532776      	81.0917        	79.98554       	81.146164      	80.15231       	80.07091       	77.73846       	80.12565       	77.31104       	80.852394      	81.24923       	80.651794      	80.19042       	81.24134       	79.38378       	81.725105      	77.93038       	84.3644        	79.61157       	77.460075      	80.54961       	79.61497       	80.99482       	76.18802       	79.69565       	81.328926      	82.84023       	84.432884      	85.42121       	
78.664024      	81.18405       	80.179146      	80.82342       	79.82236       	80.19162       	80.28226       	80.54596       	80.35152       	80.23356       	81.09698       	80.43039       	81.481735      	79.909584      	80.738144      	80.636665      	81.20751       	81.877235      	78.82917       	80.677025      	80.33889       	82.09085       	82.6194        	78.78948       	82.37768       	77.52524       	82.24328       	91.99264       	89.55447       	91.98265       	92.175446      	80.78876       	92.072174      	92.19663       	89.264244      	92.18086       	89.63573       	91.88323       	91.99066       	80.85403       	82.526505      	81.53145       	80.79794       	83.73547       	82.82206       	92.290215      	92.41318       	88.72786       	92.21076       	92.354095      	88.68424       	92.2246        	92.40689       	91.48182       	90.11027       	92.37913       	92.52473       	85.26221       	92.25251       	92.43749       	91.37395       	91.76201       	92.36284       	89.48438       	92.19734       	92.29467       	87.51433       	92.479866      	73.02856       	75.33551       	78.97592       	79.73572       	80.3117        	78.95934       	79.776436      	78.57056       	80.30418       	77.90665       	79.81578       	80.194305      	79.094635      	81.93381       	80.52919       	79.47757       	79.93694       	81.357895      	81.77516       	78.73316       	81.892586      	79.4326        	77.38999       	81.80132       	82.375305      	79.199486      	80.76485       	81.32747       	81.8542        	84.86432       	85.27575       	83.99733       	
80.90795       	80.612045      	81.49184       	80.52428       	80.7315        	79.705414      	79.29768       	78.82086       	78.95278       	80.387566      	80.28664       	80.2062        	80.54388       	79.63409       	80.05295       	80.66974       	82.1117        	80.55943       	79.96592       	81.856064      	81.46306       	81.87907       	78.642944      	79.73851       	81.629234      	82.88482       	83.1188        	77.7519        	83.99221       	78.08672       	79.12693       	81.18176       	78.6058        	92.09407       	92.17408       	79.345985      	81.80021       	81.243484      	79.396774      	82.436935      	81.78884       	81.79249       	92.08991       	92.24103       	89.450134      	92.12163       	92.25715       	92.13253       	88.67039       	92.219864      	90.96994       	92.15266       	92.35295       	92.11217       	85.06121       	92.37385       	92.52073       	78.60852       	92.30919       	92.46906       	92.307434      	90.55955       	92.35145       	91.14789       	91.09054       	92.48593       	77.4837        	92.402534      	92.15345       	77.11202       	81.129265      	78.73586       	79.75222       	80.8133        	79.93715       	78.57561       	79.17277       	80.956406      	80.20194       	79.286095      	79.80842       	80.29732       	82.05457       	81.86751       	80.07122       	80.97346       	81.16399       	83.6006        	79.37127       	81.6469        	77.49409       	79.90721       	80.64342       	81.03062       	79.7099        	81.373825      	81.72933       	83.57684       	85.73724       	84.495285      	
79.90144       	82.9178        	81.26444       	80.86406       	78.870415      	79.486015      	80.78269       	77.3067        	81.01098       	80.76284       	80.68611       	80.47851       	81.135345      	79.15275       	79.70651       	80.56052       	82.85078       	80.79087       	81.94792       	80.99084       	81.08695       	78.82871       	81.06251       	81.47449       	81.8369        	80.7053        	78.74014       	79.55222       	77.03725       	77.938545      	79.43093       	80.386444      	91.9808        	92.14056       	90.983826      	92.03975       	92.18802       	92.26582       	85.637184      	92.13646       	92.26758       	92.06215       	88.49097       	92.26729       	92.34884       	84.97733       	92.162994      	92.34025       	83.028984      	92.13516       	92.31768       	88.0882        	92.146774      	92.34267       	92.10618       	85.31177       	92.341866      	92.515076      	81.586         	92.22908       	92.42268       	88.47736       	92.178024      	92.32811       	87.62338       	92.37032       	82.07908       	92.33558       	86.76629       	76.57221       	80.09953       	80.647995      	80.081566      	80.38656       	78.683655      	79.8739        	80.69241       	80.90518       	80.39877       	80.86444       	80.88093       	80.84049       	83.10718       	78.03117       	91.98819       	92.214096      	91.33917       	85.90178       	80.31713       	79.423035      	83.30332       	78.37367       	80.86953       	79.35117       	79.67607       	83.35249       	82.81631       	81.5113        	80.62328       	85.051834      	
79.96882       	82.173096      	80.67694       	80.04355       	79.8079        	81.55396       	79.09317       	79.25043       	79.88292       	80.4646        	79.55832       	80.28055       	81.57631       	80.707855      	80.107315      	81.41371       	81.91908       	79.767876      	80.025314      	81.07425       	79.09805       	79.97181       	81.28375       	80.60944       	82.0173        	81.45988       	80.13412       	82.51678       	78.28448       	80.55865       	80.22597       	80.59136       	77.86314       	79.21958       	79.00282       	92.09379       	92.226295      	92.28633       	88.67368       	92.19079       	92.306465      	91.137245      	92.06176       	92.22265       	92.352486      	86.35459       	92.202705      	92.36363       	92.31652       	89.5653        	92.245346      	92.082924      	85.70099       	92.33351       	91.206         	92.23489       	92.42512       	92.332825      	87.55295       	92.34483       	92.497025      	85.83374       	92.302666      	80.43387       	92.25241       	92.41227       	85.59372       	92.325806      	59.307114      	79.96212       	80.51898       	80.58603       	80.17165       	79.61364       	79.85574       	80.545204      	81.34244       	81.28308       	80.086006      	79.12681       	80.85307       	78.98189       	92.220055      	92.414444      	90.255135      	79.7361        	77.37901       	78.393005      	82.23829       	82.01571       	78.24418       	79.9572        	80.85824       	83.213394      	79.773415      	77.62737       	78.88558       	83.06855       	84.16487       	83.11992       	
80.11          	81.1764        	80.88418       	79.94106       	81.076096      	79.14953       	79.73012       	80.29709       	80.470634      	80.01472       	80.1908        	80.76834       	80.96785       	81.114845      	80.40488       	83.14304       	81.6999        	80.21509       	79.90969       	80.50848       	81.160446      	79.86955       	80.45151       	81.35375       	81.15721       	81.74643       	81.36934       	80.03156       	81.367065      	80.94807       	81.13535       	80.37601       	87.15687       	92.1095        	92.07241       	86.335846      	92.12763       	92.24959       	92.22991       	88.969055      	92.18119       	92.323685      	89.87458       	92.107925      	92.27592       	92.450356      	78.92989       	92.13936       	92.32741       	92.52001       	85.416         	92.22222       	92.43086       	88.86315       	92.359955      	92.20991       	87.047554      	92.488         	91.92833       	90.810104      	92.453415      	88.78061       	92.26786       	92.466354      	50.60025       	92.302666      	92.2837        	88.675026      	92.309         	79.05834       	81.4281        	78.68306       	78.88866       	80.13802       	77.97925       	79.51326       	79.34021       	80.696976      	80.59544       	77.1891        	81.569374      	79.475555      	80.41522       	92.36551       	92.53524       	76.553986      	92.374115      	92.54149       	85.60099       	76.068794      	81.92589       	80.46629       	81.7654        	79.34542       	79.09933       	81.12827       	82.52957       	83.48236       	84.10238       	84.09213       	
80.1992        	80.401505      	81.02637       	80.810005      	79.565674      	79.38969       	78.38823       	79.96821       	79.142044      	80.45951       	78.548874      	80.68532       	80.187294      	80.93917       	81.31674       	82.37937       	80.32049       	81.84068       	79.85074       	77.8077        	80.41696       	80.047714      	80.913826      	80.730835      	81.36756       	80.52833       	81.325325      	81.68303       	79.581085      	82.84051       	80.57833       	80.56912       	88.00348       	92.11325       	92.2293        	87.57932       	92.0733        	92.207245      	92.33029       	76.39557       	92.11443       	92.26667       	90.56135       	92.11566       	92.28251       	92.404305      	88.248695      	92.2463        	92.42961       	92.06835       	86.17063       	92.347595      	92.054924      	86.4271        	92.43214       	87.697334      	92.360374      	92.53283       	85.368866      	92.32904       	92.46631       	88.02954       	92.42154       	87.48332       	92.25655       	92.29685       	78.459564      	79.50489       	76.66323       	80.27894       	78.34555       	80.20178       	79.30161       	80.35825       	79.628204      	79.77478       	81.30736       	78.407715      	92.23955       	92.35307       	79.350945      	82.56488       	79.227104      	92.28863       	92.48782       	85.97825       	92.407326      	92.40215       	84.66062       	78.552284      	80.138405      	77.25594       	81.902176      	80.1485        	78.54504       	80.970474      	83.63459       	84.27218       	82.1373        	82.87989       	
80.42768       	80.50119       	81.525024      	80.44235       	80.0645        	79.5854        	81.28481       	77.63489       	76.64573       	80.20672       	77.44664       	77.75616       	80.69265       	81.40355       	79.29278       	82.34645       	83.397545      	81.93068       	79.5053        	78.24414       	77.45847       	78.08562       	80.71563       	81.88279       	77.91431       	80.023926      	81.78133       	78.01945       	81.59787       	80.334526      	80.70842       	78.19007       	91.96584       	92.0347        	89.21547       	92.08191       	92.20694       	92.34337       	38.604874      	92.0797        	92.23665       	91.796295      	87.928795      	92.24372       	92.3916        	92.445526      	84.15391       	92.19027       	92.37704       	92.44605       	84.237015      	92.20762       	92.36153       	85.91113       	92.28458       	92.47833       	75.948586      	92.33084       	92.51151       	91.091446      	92.17835       	92.40731       	90.97345       	92.21051       	92.36886       	87.26831       	75.987564      	82.55619       	79.97117       	80.178696      	80.887726      	81.86227       	79.29365       	78.214554      	78.929565      	79.770485      	78.4875        	87.702034      	92.2771        	91.000206      	92.1525        	92.38008       	90.96988       	92.239456      	92.46843       	90.53803       	92.318054      	92.49247       	92.53274       	81.26603       	79.43041       	79.3552        	81.52571       	84.380486      	79.9656        	79.32939       	81.76013       	83.0302        	81.63324       	86.35823       	
79.84807       	79.8499        	80.85882       	79.81699       	78.60549       	82.31755       	80.2674        	79.95511       	79.70869       	76.935814      	79.748924      	81.95803       	79.57966       	81.795685      	82.414185      	82.39247       	81.24888       	80.96593       	77.28759       	78.51924       	79.98584       	78.99624       	78.98653       	86.14032       	77.06892       	81.10514       	80.61392       	79.1272        	81.70776       	78.871765      	79.43686       	83.755615      	91.976456      	84.19965       	92.01316       	92.13916       	92.26859       	91.321686      	92.02995       	92.19455       	92.22133       	85.68822       	92.18488       	92.21617       	86.998474      	92.15554       	92.348495      	92.29261       	88.79902       	92.27641       	92.274796      	86.25958       	92.34847       	92.28491       	89.03848       	92.37309       	92.468254      	85.09614       	92.32935       	92.484146      	89.617935      	92.328415      	85.40598       	79.83024       	74.51158       	81.27626       	80.26432       	78.48712       	78.28027       	80.69847       	78.506996      	79.51244       	79.143364      	79.98923       	78.98442       	80.37521       	82.292786      	92.27271       	92.42022       	88.658714      	92.28828       	92.23019       	88.83339       	92.35912       	92.01091       	86.19181       	92.40807       	92.51411       	86.22872       	92.38274       	80.86644       	80.02245       	84.69404       	77.49563       	80.68193       	80.60027       	82.10908       	83.08604       	86.52488       	86.73563       	
80.31576       	80.14309       	81.98325       	77.01092       	78.93716       	79.77227       	80.282         	81.1917        	77.46086       	77.275055      	78.16251       	78.01679       	80.76021       	82.21073       	83.429184      	80.84032       	79.7096        	79.20886       	81.53408       	78.20365       	79.676476      	80.775955      	84.3047        	80.3041        	79.67314       	80.22796       	80.090904      	79.811966      	79.67779       	82.61394       	79.700745      	80.10893       	79.08873       	91.958405      	92.10361       	92.22982       	88.68269       	92.053444      	92.22733       	92.29383       	89.58471       	92.156525      	92.22734       	86.95947       	92.16477       	92.33719       	92.50336       	87.195755      	92.18106       	92.358086      	77.11744       	92.18125       	92.375404      	85.95293       	92.27358       	92.36362       	86.34544       	92.327415      	91.30413       	79.26717       	77.833626      	80.82672       	77.84033       	80.85064       	80.74777       	81.53124       	76.743065      	78.28965       	80.4251        	79.61509       	77.8457        	81.01854       	79.86695       	87.984955      	92.33261       	91.68931       	91.179855      	92.36499       	92.52277       	90.15105       	92.26524       	92.4235        	86.1087        	92.24525       	92.446144      	90.51349       	92.228485      	92.439445      	91.989296      	85.497574      	80.42337       	91.88465       	91.60761       	80.73797       	80.14717       	80.40578       	75.828865      	82.15072       	85.82368       	85.25262       	
80.21662       	76.894585      	80.062294      	78.72407       	80.31916       	79.582565      	80.25762       	80.03943       	79.09515       	80.99279       	79.56122       	78.79226       	82.95031       	82.47104       	83.16713       	81.53337       	78.14132       	80.10125       	81.14571       	80.86125       	79.23824       	81.16314       	82.37839       	83.08098       	82.45232       	81.39182       	79.98792       	77.426346      	80.17175       	82.05781       	82.4946        	80.451744      	80.73207       	82.80546       	82.80256       	84.43099       	80.48063       	92.10047       	92.26992       	89.52784       	92.14642       	92.29815       	84.99505       	92.222         	92.38786       	90.05827       	92.118164      	92.33961       	92.48531       	86.755875      	92.31413       	92.11194       	87.44321       	92.42421       	85.72853       	92.389885      	86.3406        	92.33099       	91.06292       	81.57868       	81.01775       	79.4146        	79.41935       	81.74482       	79.8299        	77.30753       	81.14228       	80.16686       	78.00307       	79.31604       	82.787834      	79.46511       	92.26458       	92.47768       	91.90644       	92.171585      	92.439995      	92.59238       	90.13613       	92.33985       	92.49756       	92.61088       	90.333855      	92.431076      	92.57386       	92.157135      	88.08348       	92.447845      	92.42414       	86.86865       	92.38162       	91.15256       	81.74489       	77.91183       	79.57238       	81.04087       	80.793755      	81.7254        	85.237144      	83.917984      	
80.19709       	80.26851       	81.149254      	76.87979       	80.37907       	79.87625       	79.94216       	77.783806      	79.1444        	79.62988       	78.92544       	81.99429       	79.24701       	83.15216       	84.28066       	81.28071       	78.09813       	79.75411       	81.52098       	81.57606       	80.83843       	81.60772       	80.36474       	83.42977       	82.53101       	80.37485       	79.72959       	79.85055       	76.88245       	83.220314      	81.679985      	81.06456       	80.952286      	82.07187       	82.54957       	83.99197       	81.355675      	81.79627       	78.39738       	82.620056      	92.09644       	92.21945       	86.46905       	92.20616       	92.372406      	89.55064       	92.23468       	92.41105       	87.95349       	77.21659       	83.10064       	78.72041       	82.769714      	78.31327       	84.27658       	92.41979       	76.57795       	92.34606       	82.67671       	78.89426       	79.64358       	80.31764       	79.52454       	79.937836      	81.36966       	80.997025      	80.98101       	81.2064        	79.660736      	80.12077       	80.22263       	79.152176      	79.458046      	92.24887       	92.45609       	92.59139       	85.62106       	92.29287       	92.457695      	92.60453       	88.36523       	92.313156      	92.48964       	92.62608       	80.55862       	92.40082       	92.53405       	92.21981       	85.983444      	92.479706      	92.58416       	88.4833        	92.3656        	82.045525      	77.530426      	79.999016      	79.98228       	80.36282       	85.82318       	84.47985       	
78.669266      	81.857445      	80.614685      	80.26045       	77.51033       	78.683784      	79.99203       	78.004616      	76.89976       	80.18691       	80.34341       	80.361084      	81.03252       	80.81345       	81.799995      	80.54849       	80.79073       	79.96758       	79.713165      	79.6337        	77.48155       	82.12925       	80.49613       	81.05795       	79.98111       	81.3931        	77.78678       	83.04451       	78.56501       	79.067116      	79.94393       	75.29817       	83.30706       	83.27483       	82.80172       	80.86699       	79.68507       	92.02658       	92.19945       	92.35889       	69.26575       	92.05025       	92.222084      	92.36855       	92.308105      	89.129906      	92.04481       	92.24381       	90.905365      	81.97866       	78.26308       	81.21558       	87.81356       	92.26845       	91.335655      	81.532074      	92.07887       	91.46649       	79.64193       	80.07534       	79.96714       	80.122154      	81.03758       	80.88401       	82.312454      	79.23161       	80.66441       	82.407906      	79.46213       	80.304405      	81.23465       	92.27506       	55.832794      	92.32931       	92.48057       	92.60888       	88.03668       	92.150154      	92.32644       	92.463936      	92.49862       	87.785736      	92.385574      	92.527084      	92.64921       	88.78196       	92.35556       	92.50105       	92.65573       	91.34584       	92.261765      	92.44498       	90.96075       	80.59912       	77.65652       	83.233574      	82.892296      	83.08776       	83.53557       	82.738785      	
80.266205      	81.284035      	80.61307       	79.90338       	91.01039       	76.991066      	80.82783       	80.50486       	76.70392       	79.93095       	81.354095      	80.25054       	77.91387       	77.93155       	81.68085       	83.05786       	77.55378       	76.544876      	77.50752       	80.48777       	77.3098        	82.6077        	81.81371       	78.57305       	79.816956      	79.21041       	79.074036      	80.18245       	80.97667       	82.108154      	79.10235       	82.116745      	81.260735      	83.66369       	82.77279       	80.849724      	77.86909       	83.91349       	80.15141       	87.79483       	92.11634       	92.314514      	90.63686       	91.97673       	92.18817       	92.403885      	91.434395      	90.97215       	92.117065      	84.68833       	84.509186      	81.986244      	81.22729       	79.61601       	77.85205       	78.29986       	92.172226      	87.31371       	80.99694       	78.13948       	82.28033       	81.19271       	80.12066       	79.94326       	82.4737        	81.82941       	79.4351        	80.869995      	80.19434       	78.55065       	79.94228       	81.47662       	92.24663       	92.43421       	92.59319       	89.182945      	92.20455       	92.429016      	92.56282       	92.66546       	89.48499       	92.34877       	92.50146       	92.627426      	92.14154       	92.2965        	92.44328       	92.61585       	92.71459       	90.303696      	92.41175       	92.567         	90.24412       	92.18758       	92.3076        	80.43612       	82.02721       	81.61048       	81.58193       	82.87278       	
79.89627       	81.06038       	80.46292       	81.19181       	80.9           	76.862076      	76.48959       	77.96306       	79.03391       	80.36089       	81.59591       	80.581314      	80.70085       	80.19085       	82.14442       	80.02811       	80.3972        	79.30907       	79.02521       	81.37624       	80.8989        	82.84245       	81.91322       	78.84775       	80.09435       	80.35373       	79.94329       	80.72762       	81.551834      	80.567856      	81.14262       	79.97763       	79.25807       	81.41365       	80.73342       	80.732544      	83.67705       	79.43572       	82.18873       	80.97775       	91.95661       	92.230095      	92.37613       	87.19802       	92.163895      	92.04734       	86.23813       	80.55338       	82.66923       	77.67965       	82.088066      	83.346214      	79.712074      	81.66712       	80.92604       	81.65393       	79.82647       	81.382164      	77.58522       	79.92559       	82.956635      	80.49254       	81.32352       	80.34026       	78.29517       	80.57204       	81.18348       	77.60946       	79.61144       	77.12806       	79.46317       	77.38142       	92.32353       	92.48257       	92.573456      	88.8592        	92.37901       	92.54462       	92.661316      	84.960686      	92.34242       	92.5161        	92.636925      	92.73479       	86.76523       	92.36169       	92.523544      	92.687096      	91.42095       	92.30896       	92.49813       	92.63964       	88.97373       	92.307106      	92.49363       	92.23254       	81.405266      	81.16688       	83.25538       	83.17745       	
78.77094       	80.46274       	81.06312       	83.25628       	78.48855       	79.163155      	82.500565      	78.01495       	79.02473       	79.182396      	80.342255      	80.90496       	79.59476       	78.58136       	79.82474       	79.73438       	80.29652       	79.22757       	78.588326      	83.00368       	81.46068       	79.84341       	82.55698       	80.70574       	79.0656        	79.231445      	79.779366      	82.73419       	81.95391       	79.797844      	81.86983       	81.9968        	82.58483       	80.856636      	80.95849       	78.73914       	81.498924      	81.33874       	82.08459       	81.96965       	79.84133       	81.92212       	91.17163       	92.26295       	69.72804       	92.12729       	92.31498       	78.98161       	77.38508       	81.958916      	80.997536      	79.15518       	80.566055      	80.05299       	79.5225        	80.538605      	81.454506      	79.35847       	80.86517       	79.72467       	79.736496      	82.64201       	82.61557       	85.99319       	92.31595       	86.06175       	75.584145      	78.12473       	92.34574       	86.32906       	78.54261       	87.20252       	92.43712       	90.48269       	92.25743       	92.43263       	92.606544      	85.843025      	92.26601       	92.42333       	92.58974       	92.68653       	90.16747       	92.35264       	92.5114        	92.640625      	92.27217       	87.771255      	92.42046       	92.59288       	92.43223       	85.80026       	92.429924      	92.59485       	90.75022       	91.94974       	92.19889       	92.23613       	90.77899       	57.118484      	
75.70049       	91.80357       	58.311428      	91.78256       	83.8292        	91.6951        	84.46916       	73.76763       	80.61884       	80.80421       	81.48188       	83.179016      	78.43668       	81.30237       	79.020355      	81.50342       	81.01568       	80.97498       	80.46135       	81.507095      	80.14056       	79.50005       	82.40789       	78.71696       	80.76343       	81.45209       	80.74896       	79.72686       	79.25168       	83.28579       	81.8957        	80.93852       	81.39561       	80.60009       	80.16771       	81.73857       	79.12653       	78.05026       	79.879776      	80.09434       	81.782486      	82.18901       	81.40181       	80.32488       	82.48836       	92.15675       	91.706604      	83.9732        	80.68867       	82.00593       	82.11175       	79.70669       	80.704605      	89.9122        	91.98705       	80.43601       	75.397095      	82.06566       	80.20911       	81.019104      	80.40858       	81.00584       	79.53125       	76.933846      	83.76956       	92.27342       	89.44877       	92.37196       	80.71331       	92.27212       	92.277084      	87.86362       	92.364296      	92.5203        	85.90864       	92.279724      	92.44266       	92.593605      	86.09339       	92.28235       	92.44728       	92.60529       	92.5614        	90.22997       	92.43072       	92.61003       	92.73684       	87.821335      	92.41013       	92.58113       	92.72562       	78.54749       	92.371704      	92.57719       	91.85557       	88.70067       	92.4298        	92.5143        	92.55109       	90.51367       	
75.68363       	78.42406       	91.96758       	77.94277       	81.89617       	80.79936       	77.7683        	79.81012       	76.00799       	79.1452        	78.16805       	80.582886      	80.722534      	80.19881       	80.39156       	77.77754       	80.68452       	78.362076      	83.372314      	79.940285      	80.803856      	79.736435      	77.524925      	82.06677       	81.89372       	79.67314       	80.671036      	80.92358       	91.86852       	91.92286       	85.83364       	91.911995      	90.40637       	91.081         	92.013336      	81.28614       	81.05564       	80.60092       	79.491875      	78.69586       	81.54718       	83.1432        	80.6815        	81.23931       	79.35462       	78.62778       	79.08497       	79.46791       	82.12216       	77.226395      	84.06911       	82.448555      	81.423164      	86.87829       	81.81702       	77.79393       	77.12188       	80.08291       	79.75881       	79.64456       	81.99486       	80.90409       	77.10008       	82.33038       	77.58475       	88.645         	92.3581        	82.50934       	92.25426       	92.42631       	74.70754       	92.27701       	92.45023       	92.29095       	87.891014      	92.37842       	92.53678       	92.63711       	87.43287       	92.33485       	92.48732       	92.63753       	92.329506      	92.24873       	92.44433       	92.60705       	92.755844      	79.715096      	92.40031       	92.57059       	92.71084       	92.136154      	92.32184       	92.508804      	92.68442       	85.31579       	92.35408       	92.4706        	92.55826       	92.61632       	
79.628365      	75.06377       	80.729385      	80.39441       	81.90224       	79.18058       	78.416466      	79.721924      	76.43947       	78.95398       	79.71203       	80.16781       	80.74765       	79.49305       	77.21517       	79.138405      	79.69003       	78.479866      	79.38382       	80.87221       	79.456436      	79.235016      	80.29938       	80.146835      	80.744064      	80.05803       	78.76813       	91.858376      	87.32781       	91.75553       	91.326515      	86.660484      	83.988914      	91.84626       	92.01159       	87.22085       	91.952866      	89.64784       	81.00835       	80.81055       	82.00794       	78.49215       	80.14416       	81.03652       	92.175285      	85.420715      	92.18126       	92.36763       	88.69352       	92.25957       	87.14694       	77.9742        	76.28495       	78.39257       	75.7293        	78.578575      	76.09216       	78.6219        	92.19034       	92.368164      	88.52031       	92.3616        	92.23831       	87.18891       	92.393166      	83.83287       	92.32806       	91.68088       	92.15813       	92.42695       	89.37771       	92.242386      	92.40806       	92.43695       	88.93862       	92.36318       	92.53203       	92.65683       	85.00819       	92.33251       	92.45406       	92.603676      	90.966606      	92.29822       	92.47667       	92.637825      	92.7768        	87.51487       	92.40922       	92.59603       	92.77319       	84.444565      	92.43089       	92.59668       	92.67265       	88.40146       	92.40657       	92.5013        	92.56041       	92.59705       	
74.65222       	81.02746       	77.59009       	78.137726      	75.37291       	79.57032       	77.24679       	80.0454        	79.3758        	80.31938       	80.44737       	78.41561       	77.91135       	79.75529       	79.04855       	81.114655      	78.984634      	78.77855       	78.89973       	80.03887       	80.07895       	76.892624      	80.33859       	78.925064      	79.13215       	82.75584       	80.18165       	91.845085      	92.03638       	86.78967       	91.89241       	91.97073       	86.39338       	92.071495      	92.17409       	87.60542       	92.17432       	90.86772       	92.07696       	92.19456       	86.74665       	92.22898       	85.83756       	79.68983       	92.1858        	71.53102       	80.73442       	78.39187       	81.81084       	76.92563       	79.78278       	92.273346      	68.41515       	79.362045      	77.59176       	78.10164       	79.71073       	92.29219       	92.30107       	86.820045      	92.35213       	92.142494      	86.73652       	92.39403       	87.82866       	92.291595      	91.33424       	87.858765      	92.06915       	87.73291       	92.27891       	86.37381       	92.29156       	92.24986       	88.40534       	92.37854       	92.53766       	92.37864       	88.40208       	92.41574       	92.55595       	92.578         	89.79617       	92.27306       	92.44581       	92.599976      	87.67076       	92.41536       	92.59174       	92.75205       	85.250046      	92.47943       	92.63957       	87.434906      	92.4088        	92.55306       	92.27415       	88.658554      	92.418434      	92.49177       	
80.57919       	80.63662       	78.65404       	76.714554      	79.219505      	79.2293        	80.31178       	81.969185      	81.07506       	80.651276      	80.265656      	79.75114       	81.28518       	80.70485       	79.80663       	79.750084      	81.099144      	79.604225      	78.501526      	80.84018       	79.15072       	81.363686      	79.1298        	82.52523       	78.402275      	79.60977       	81.80648       	90.877014      	91.960014      	90.137764      	91.865486      	92.07724       	86.09665       	91.32594       	91.50711       	84.00867       	91.53259       	91.79416       	77.562645      	80.750755      	81.23398       	90.02116       	92.302315      	79.559074      	78.63788       	82.17909       	81.516235      	76.58248       	80.24801       	82.06852       	80.21931       	79.56113       	85.807625      	80.76825       	81.03258       	75.83036       	81.73551       	91.5178        	92.352         	92.16658       	92.19934       	92.42402       	90.80827       	92.15192       	92.45677       	85.19389       	92.37115       	92.29598       	86.79624       	92.41562       	87.007835      	92.29309       	92.482445      	79.23018       	92.30997       	92.51169       	92.673706      	89.29815       	92.28848       	92.47167       	92.650505      	92.66579       	90.40957       	92.48249       	92.64144       	92.83177       	85.12485       	92.418076      	92.63328       	92.81802       	81.10684       	92.43972       	92.6259        	92.470245      	87.267746      	92.548935      	92.6777        	92.54471       	45.24412       	89.23242       	
77.960785      	78.72979       	77.92446       	78.5702        	78.37508       	78.10266       	80.25038       	76.06573       	81.21054       	80.51021       	79.83658       	82.047966      	79.251945      	80.5327        	78.33734       	81.1375        	80.67653       	80.55228       	81.078476      	78.51619       	80.20397       	76.7331        	80.55894       	81.98221       	82.58264       	82.11345       	81.93755       	78.79703       	91.85965       	92.06995       	85.949036      	91.95055       	92.163376      	92.04065       	88.02254       	92.27415       	84.77584       	80.36138       	92.26066       	85.89718       	92.16427       	92.31167       	89.66777       	92.28312       	80.72202       	79.97655       	78.77432       	81.293526      	80.18781       	78.03467       	78.84793       	78.87128       	80.06136       	81.74444       	78.502655      	78.12767       	77.143906      	92.30263       	92.43773       	87.70587       	92.34857       	92.44433       	89.46805       	92.27982       	91.741714      	90.02774       	92.33969       	89.57946       	92.4456        	91.24046       	92.265724      	92.455956      	90.90043       	92.293         	92.46358       	92.08922       	92.1793        	92.449615      	92.60269       	91.98103       	90.423134      	92.48312       	92.67164       	92.811455      	85.65814       	92.45818       	92.643814      	92.758934      	86.318565      	92.47752       	92.67103       	92.11354       	92.42767       	92.61006       	92.66998       	88.8194        	92.4678        	92.54847       	92.61582       	92.2641        	
77.23304       	80.69259       	77.62469       	79.34073       	79.65762       	77.38526       	81.18929       	79.190056      	82.15906       	80.50424       	81.33107       	81.39894       	79.31404       	80.525375      	79.58853       	80.828545      	81.609406      	81.028625      	81.05557       	80.56749       	77.68213       	81.58301       	81.89166       	81.45492       	82.07895       	81.35029       	81.966774      	80.95665       	81.72598       	78.94825       	85.57101       	91.28976       	90.0651        	89.902405      	91.70947       	89.44994       	79.532326      	82.47108       	78.38116       	79.54497       	87.332146      	78.986885      	91.63073       	89.86579       	80.52848       	81.64756       	82.02533       	77.09793       	81.428505      	81.5948        	80.51639       	79.04354       	81.21056       	80.60721       	77.74988       	76.46906       	81.56591       	78.11945       	75.73627       	87.95712       	92.37861       	92.477165      	87.86873       	92.417725      	83.49805       	92.381195      	92.1387        	89.85782       	92.16626       	86.143616      	92.32959       	86.60938       	92.39472       	86.432335      	92.33575       	92.43265       	85.60333       	92.41406       	92.58565       	91.710785      	92.20811       	92.54098       	92.6945        	92.61683       	85.38767       	92.498314      	92.68054       	92.609215      	85.60093       	92.5506        	92.73222       	84.937996      	92.37102       	92.514336      	92.45485       	88.34476       	92.47719       	92.575745      	92.55458       	50.30942       	
78.04104       	77.45253       	76.00733       	79.09538       	83.427086      	75.80567       	76.98647       	79.871864      	80.121765      	80.07251       	77.82911       	80.27997       	80.59401       	79.64556       	77.51059       	78.59566       	80.4713        	82.48041       	80.235306      	79.68666       	80.500786      	77.13994       	78.48485       	79.11444       	81.91804       	81.7958        	81.86677       	82.631645      	76.492294      	82.34192       	91.313705      	91.584114      	84.04252       	91.15963       	91.45839       	80.8647        	80.53794       	82.667404      	79.082504      	78.478165      	79.236534      	78.64023       	79.66523       	86.4849        	87.2515        	78.95504       	78.90055       	81.074524      	85.18411       	83.801865      	79.30104       	79.14258       	80.48516       	79.67888       	79.31411       	80.292534      	79.887         	76.03884       	91.3228        	91.41961       	86.999626      	91.2922        	91.463104      	86.15274       	91.211105      	91.18525       	86.8444        	91.29486       	89.11275       	91.46403       	90.242226      	90.83252       	91.09797       	76.65088       	80.391         	86.70927       	92.39303       	85.99304       	92.32879       	92.51258       	92.63992       	89.78664       	92.489204      	92.67277       	88.927475      	92.47055       	92.657234      	85.961624      	92.37917       	92.58408       	87.157646      	92.41087       	92.413765      	81.85524       	76.866295      	76.722084      	77.09886       	78.2264        	75.23448       	80.09544       	
79.18077       	77.392685      	74.86358       	81.23194       	79.56896       	77.50245       	77.79255       	78.62846       	80.86135       	79.648445      	80.725         	78.21659       	74.152664      	76.74931       	78.12859       	81.26642       	78.508514      	79.75247       	80.01468       	81.24099       	80.911415      	80.959984      	79.460266      	82.48381       	81.53703       	82.22095       	79.99253       	79.50745       	83.36235       	80.71606       	82.08164       	82.14757       	81.03307       	79.38222       	81.97211       	80.32686       	81.440865      	81.894424      	82.240425      	79.143776      	78.75072       	79.45142       	79.95774       	82.374695      	80.33436       	77.68293       	85.41803       	80.99034       	82.429016      	79.43035       	81.78958       	80.10632       	81.13213       	79.928055      	79.2343        	80.56927       	78.29057       	79.22483       	80.77859       	86.660164      	91.048965      	91.29905       	88.274345      	91.59159       	91.444466      	86.027596      	91.19181       	84.4192        	78.23285       	90.905304      	90.83925       	87.757095      	73.58515       	78.814255      	80.56441       	76.74305       	80.5094        	76.25818       	80.38569       	80.41501       	79.20003       	90.33942       	91.18578       	90.83981       	88.46402       	91.17196       	90.867134      	89.18472       	92.248055      	88.33894       	80.51405       	92.34209       	78.81742       	76.50753       	77.7506        	79.73869       	80.185486      	78.795235      	74.644264      	78.798515      	
91.16134       	91.160774      	90.899315      	87.469315      	81.01827       	77.61145       	79.76951       	85.50501       	90.75786       	85.87296       	79.35033       	76.11084       	81.45407       	81.00239       	77.46471       	81.248146      	78.760765      	82.48449       	81.72782       	80.546326      	79.91916       	81.02181       	82.27257       	79.745094      	79.83296       	81.727516      	82.02532       	78.50871       	83.774216      	81.84059       	81.513435      	80.24235       	82.47901       	77.51103       	83.8756        	81.00956       	82.709915      	79.95853       	81.11436       	81.852646      	80.75684       	80.859825      	81.51948       	78.99157       	82.38122       	78.38827       	81.473045      	78.601974      	82.46955       	77.095406      	78.35768       	78.93949       	77.94954       	81.42288       	80.43324       	80.15191       	81.66296       	79.401184      	81.20598       	79.45772       	80.619354      	78.789246      	91.3759        	89.844536      	90.408844      	91.00917       	78.663475      	90.96414       	91.01848       	79.976135      	79.2039        	78.16294       	81.92204       	80.420654      	79.76806       	80.045906      	80.223595      	78.569695      	82.10351       	80.15002       	77.608505      	82.58549       	75.1323        	92.341         	92.50136       	87.26643       	92.3173        	91.434494      	81.88318       	79.94589       	88.07559       	92.56482       	77.70959       	79.317635      	78.42447       	79.42199       	79.33222       	79.78724       	79.76856       	78.42278       	
85.597275      	91.220726      	87.660484      	91.21933       	91.29078       	87.99806       	90.77052       	90.496925      	79.274704      	90.65557       	90.813255      	81.89299       	80.30177       	81.050354      	78.656364      	79.98249       	77.89195       	80.826256      	80.85217       	79.49792       	82.29565       	79.35411       	80.609955      	79.06451       	82.3709        	78.50359       	82.9289        	84.50495       	82.98281       	78.09141       	81.60649       	84.60413       	81.2615        	82.32955       	80.03928       	79.75415       	78.275246      	79.221115      	81.745445      	79.46074       	78.49688       	78.219696      	77.89874       	84.379555      	78.09724       	77.53565       	79.32955       	77.95451       	80.48618       	79.9918        	79.8439        	79.53764       	79.71976       	80.26613       	79.23416       	77.94588       	79.21734       	80.227486      	78.04623       	82.738014      	82.57774       	86.7843        	91.27045       	89.897896      	78.958405      	91.2606        	91.12112       	82.838844      	80.258354      	79.687904      	80.5866        	78.023544      	79.368996      	78.7113        	81.89848       	77.589554      	78.41439       	78.44328       	81.99589       	77.66989       	82.36561       	76.23754       	91.39332       	91.36385       	90.73871       	91.497894      	91.92098       	75.475784      	81.415085      	91.01071       	88.471146      	80.72765       	76.29643       	78.50318       	78.69999       	77.68311       	77.616745      	77.99694       	82.979706      	78.61011       	
91.16592       	88.106895      	91.020515      	91.063736      	84.39809       	91.03677       	91.00669       	85.622505      	90.93252       	91.03761       	85.09979       	91.04076       	88.94909       	80.49807       	81.25216       	76.99631       	79.22622       	79.5215        	79.72194       	82.06027       	79.453735      	79.43317       	81.003624      	77.85465       	81.66011       	76.70323       	81.15656       	80.560074      	80.84246       	82.46234       	79.68282       	82.64263       	78.26414       	80.08831       	82.25725       	80.53935       	79.86114       	82.110146      	80.53264       	80.061485      	77.64879       	79.45732       	81.49676       	79.358696      	79.693596      	83.4238        	76.73347       	78.63849       	80.73214       	81.80079       	77.46652       	78.70438       	78.78281       	80.82679       	79.5928        	80.646545      	81.30276       	81.28711       	79.994865      	79.97417       	83.14835       	82.64499       	78.22536       	82.464165      	78.8829        	81.03011       	81.55632       	85.446236      	79.58816       	81.29197       	82.231865      	79.9621        	78.29643       	81.49767       	80.86638       	80.53449       	79.60365       	80.67399       	81.74839       	75.404396      	78.89877       	92.491585      	92.48968       	85.80512       	92.52766       	92.10767       	86.66827       	91.478516      	85.28999       	91.694466      	91.70502       	86.96723       	90.64783       	58.132435      	76.50643       	78.91358       	81.17454       	79.14192       	80.32812       	79.50643       	
91.55847       	84.91463       	91.09783       	91.41988       	85.31173       	91.46559       	91.593285      	87.9519        	91.330864      	91.36145       	86.48598       	91.34331       	88.29984       	91.29956       	88.92434       	79.15748       	77.60874       	79.80077       	79.44852       	81.342445      	79.31296       	80.29663       	80.75807       	81.17891       	81.59869       	81.80311       	81.37625       	79.88974       	82.44703       	80.88054       	81.864006      	83.132126      	82.56951       	80.93984       	79.919044      	79.069214      	76.43903       	91.61817       	81.12349       	80.890236      	77.45221       	79.98995       	79.90553       	80.60264       	83.08861       	80.1311        	80.88728       	81.30494       	81.31548       	80.839035      	79.4622        	76.66567       	78.17982       	81.30078       	78.974         	80.6633        	81.20517       	83.14775       	81.59441       	79.16897       	81.9774        	81.06314       	79.48393       	79.00629       	80.60227       	80.63072       	78.89463       	80.96483       	80.0498        	79.560265      	80.34615       	78.25325       	78.69891       	81.62347       	77.00441       	79.201546      	80.73769       	81.727104      	76.64501       	76.699745      	91.54272       	91.23693       	88.222404      	91.42725       	91.5361        	86.067314      	91.70348       	91.824615      	88.90604       	91.86353       	89.56054       	80.14088       	79.92013       	78.39764       	78.143906      	78.904366      	79.721176      	76.62049       	79.21541       	78.573494      	
39.441128      	92.268425      	88.8609        	92.08336       	92.278984      	91.127106      	92.03152       	92.21539       	89.6211        	92.043434      	92.00627       	84.84479       	92.170044      	77.39046       	92.09033       	77.484375      	80.26434       	76.02752       	79.643         	76.54656       	79.10191       	81.02917       	78.85228       	79.9241        	76.86586       	82.24825       	80.63815       	77.468056      	77.420944      	81.95387       	80.99858       	78.81854       	79.30342       	80.80846       	78.285645      	83.43676       	80.494225      	81.414505      	81.0558        	79.95504       	77.71802       	78.046425      	81.85031       	80.98664       	81.12844       	76.37655       	82.001366      	79.34721       	76.95163       	82.00731       	75.61448       	79.44294       	77.32656       	77.899796      	79.72464       	81.9634        	80.19178       	80.218475      	83.667694      	81.995125      	82.22081       	81.50824       	81.49347       	84.644936      	92.40507       	76.49685       	77.19942       	79.12212       	75.44251       	82.15532       	76.75184       	81.82609       	78.28437       	78.008385      	80.30396       	88.219444      	92.50594       	79.918915      	92.465164      	92.61393       	89.69782       	92.627914      	92.081764      	92.339806      	92.541794      	89.17182       	92.517654      	92.68294       	84.3052        	92.51494       	92.487625      	87.629005      	92.5795        	87.34193       	92.523384      	77.93894       	78.00686       	76.52559       	79.11881       	76.42975       	
86.58303       	89.093475      	92.19518       	92.35478       	85.67323       	92.13371       	92.07359       	88.04093       	92.11465       	78.979706      	81.95786       	79.59873       	86.32767       	91.97828       	87.54201       	92.15823       	79.67685       	78.63826       	80.08419       	79.608635      	80.768234      	80.974724      	83.4886        	84.86046       	91.918785      	92.117195      	85.35275       	92.163376      	92.13209       	87.30929       	75.36733       	80.56549       	80.64339       	81.12844       	78.26346       	82.33685       	82.493004      	81.84138       	81.1889        	79.64827       	80.361565      	81.9952        	78.598885      	85.29501       	89.1034        	82.612854      	78.613716      	76.893486      	79.806625      	80.16463       	80.080414      	80.27632       	80.50783       	80.28282       	81.055336      	77.74199       	81.24587       	84.054375      	80.85248       	83.04673       	81.036514      	81.9197        	82.014694      	80.9212        	80.52971       	79.70751       	81.399284      	81.82644       	80.04085       	81.222015      	81.48509       	80.08363       	82.6314        	80.86029       	82.03005       	77.41619       	82.69681       	78.897194      	79.744064      	78.969986      	82.2751        	79.73627       	92.55799       	92.62015       	88.569084      	92.65532       	91.203186      	92.53107       	92.68421       	86.11514       	92.589035      	91.68353       	91.59154       	90.75499       	90.385635      	91.512146      	77.33869       	79.5812        	74.22616       	74.18817       	
92.29142       	92.27202       	92.36268       	90.10316       	92.34907       	81.1553        	92.16599       	91.6573        	78.52918       	80.31762       	79.88389       	78.87576       	84.2734        	86.68031       	92.35248       	61.09208       	92.167366      	88.817         	79.00822       	76.664345      	92.06273       	87.31691       	92.10423       	92.2466        	88.51702       	92.169846      	92.167946      	88.915855      	92.23617       	91.91939       	80.55259       	80.260666      	77.148415      	80.39297       	80.72339       	80.28004       	83.14642       	79.969635      	86.88572       	91.27725       	77.06968       	92.21135       	91.94472       	85.12122       	85.75582       	89.929         	78.41528       	78.10707       	78.78838       	78.16955       	80.48867       	79.87402       	76.412895      	87.69547       	92.29418       	86.3125        	92.28615       	92.39312       	87.948326      	92.19229       	92.201805      	89.82877       	92.41285       	78.55022       	78.51628       	77.30772       	80.16209       	81.68789       	79.50665       	79.62421       	80.49785       	77.89135       	77.86198       	77.57253       	79.280685      	83.1165        	79.96056       	80.5725        	82.07646       	82.22832       	92.695465      	90.81978       	90.84929       	92.7004        	88.13449       	92.55033       	92.72804       	82.41719       	92.57372       	92.714714      	89.80543       	92.62035       	90.13688       	92.49429       	92.476204      	86.46311       	92.49408       	92.43183       	56.41432       	75.5472        	
79.90962       	92.40139       	83.5712        	92.24606       	92.32448       	85.23769       	92.241104      	92.16676       	87.34409       	92.30896       	56.128822      	81.224         	92.27664       	91.920395      	87.93339       	92.30455       	88.15231       	72.71736       	77.99699       	78.370834      	87.40386       	92.25102       	89.02154       	92.17509       	92.23956       	85.03147       	92.2507        	92.25287       	88.89743       	92.28333       	92.361244      	82.69128       	82.520966      	79.5793        	81.36756       	76.960106      	78.885544      	80.01064       	80.60529       	81.39307       	77.598206      	79.55541       	80.58565       	83.99589       	77.23671       	78.70141       	80.73487       	75.44284       	78.7043        	78.95572       	78.57027       	79.73213       	91.04782       	92.210785      	85.7296        	92.27141       	92.08204       	86.634254      	92.22794       	89.83125       	92.273186      	92.43332       	86.39919       	92.415146      	59.643238      	80.26949       	81.1301        	79.89328       	80.455025      	79.733635      	80.83874       	79.32105       	79.29169       	92.352         	88.020195      	80.24892       	80.88482       	79.18289       	85.945656      	92.6481        	91.941414      	85.220055      	92.68292       	92.03922       	91.52253       	92.68355       	92.62204       	85.27335       	92.63256       	92.641914      	86.51752       	92.6379        	88.06651       	92.479324      	92.51546       	89.84456       	92.52842       	91.17414       	74.91153       	75.45546       	
79.228264      	82.41958       	90.590675      	92.462364      	79.59833       	92.22539       	92.41387       	83.23603       	92.18781       	92.3697        	87.596054      	90.821365      	92.33616       	91.732834      	88.723335      	92.31759       	77.510056      	81.00881       	80.429695      	80.61401       	80.78429       	92.23481       	90.48528       	90.4739        	92.24152       	78.41948       	92.17285       	92.20259       	86.90457       	92.1476        	92.043144      	81.70987       	79.18163       	78.90249       	81.11703       	76.403175      	83.02156       	77.14773       	80.20226       	79.45179       	83.32365       	80.6876        	79.598114      	81.932365      	80.83753       	80.855804      	77.75478       	87.7457        	92.05945       	78.31584       	77.94733       	80.238075      	77.26572       	91.280846      	92.1625        	83.375015      	76.28736       	91.09834       	92.39983       	55.55769       	92.246284      	91.9814        	78.81391       	80.68745       	80.21441       	84.225         	80.31315       	80.011765      	76.738335      	79.17125       	80.19356       	80.615456      	80.61094       	92.45499       	92.48802       	86.39342       	84.12159       	77.88474       	92.60307       	83.115135      	92.58597       	92.733246      	90.240295      	92.62091       	92.7639        	87.90513       	92.58491       	92.7241        	89.157845      	92.521904      	92.708534      	90.36014       	92.53026       	92.682205      	88.0122        	92.445755      	92.26852       	55.63856       	87.6351        	92.38617       	
49.72028       	92.485245      	87.86173       	92.367714      	92.28491       	86.82802       	92.36088       	92.328476      	88.45424       	92.34927       	92.16534       	85.806206      	92.37064       	89.35165       	92.24394       	89.945984      	92.272224      	79.58605       	79.39843       	81.16591       	86.31411       	92.341835      	88.600235      	92.089584      	92.263985      	86.21263       	92.20391       	92.35823       	79.31753       	92.22831       	92.3921        	83.90121       	79.71046       	81.56917       	83.244385      	78.27566       	77.07382       	80.98905       	78.33998       	80.88689       	78.097435      	80.30019       	79.6933        	84.03429       	80.69562       	82.123924      	88.33343       	90.03911       	84.461815      	81.21455       	92.17606       	89.10871       	92.28419       	81.68553       	87.29424       	92.366875      	83.61268       	92.272995      	92.47252       	86.90722       	92.35664       	91.74104       	84.99536       	80.94943       	77.913376      	80.806366      	78.422356      	81.50356       	78.237366      	79.63916       	82.41991       	78.23342       	78.11818       	81.561195      	85.904465      	75.66608       	91.87244       	92.59882       	78.841515      	89.20858       	92.69609       	90.54835       	92.52747       	92.699295      	78.49778       	92.58762       	92.74902       	88.36467       	92.59535       	92.640366      	87.38623       	92.68551       	90.09425       	92.576584      	92.54278       	88.56116       	92.5945        	92.16102       	53.407047      	86.100105      	
88.32158       	87.935265      	92.34669       	92.47173       	90.082344      	92.28605       	92.464355      	88.04138       	92.17334       	92.35781       	91.529785      	91.13155       	92.32598       	78.48944       	81.07615       	78.421906      	83.26427       	78.37303       	79.97822       	78.256096      	80.83049       	92.190544      	91.96331       	88.67246       	92.266335      	89.46744       	92.16012       	92.30377       	89.93706       	92.07301       	92.22984       	89.750145      	80.45527       	78.9473        	77.62286       	78.34595       	79.711914      	78.84557       	78.78685       	82.71128       	92.29092       	81.36541       	82.89209       	77.974815      	76.05203       	80.90314       	82.46889       	79.27114       	81.98401       	87.273415      	92.185715      	81.703156      	77.70177       	92.346214      	88.90334       	92.18133       	92.36627       	87.370575      	92.254974      	90.69592       	91.44794       	92.23528       	83.676895      	80.689224      	80.22623       	80.033394      	78.4787        	79.80084       	81.468025      	77.63888       	82.21222       	76.8864        	81.802925      	81.20309       	80.21701       	85.382576      	79.62912       	83.63914       	81.14243       	79.54282       	92.582085      	92.72487       	87.16073       	92.66372       	80.82978       	92.62805       	92.56547       	88.15508       	92.70327       	90.161705      	92.6627        	86.40608       	74.66403       	79.78062       	82.152885      	79.03591       	78.35569       	89.0523        	92.498375      	85.25669       	
89.95685       	92.44839       	85.577095      	92.231094      	92.37808       	88.62355       	92.23195       	92.39644       	80.22233       	82.29016       	76.26793       	92.21236       	63.76776       	78.7934        	82.90176       	80.5886        	78.97223       	76.13728       	79.48922       	78.10738       	77.1464        	78.90133       	81.24832       	92.247375      	59.68172       	92.23578       	84.176636      	92.19711       	92.147285      	75.78792       	80.05518       	77.62058       	81.75671       	79.54921       	82.62337       	81.95965       	81.820915      	80.41689       	79.01699       	84.13699       	82.458115      	80.199066      	80.37328       	80.59423       	80.07127       	82.254074      	80.59522       	78.94421       	78.17653       	81.06159       	80.4401        	80.06843       	91.52579       	91.89607       	89.458206      	92.1067        	85.76797       	92.351814      	85.13745       	78.89658       	89.49382       	90.940506      	80.21056       	80.33601       	80.02104       	78.92929       	79.98501       	79.80258       	80.56454       	84.02164       	76.986595      	79.46176       	80.31277       	79.58715       	82.20959       	78.56465       	78.71237       	80.22718       	79.32894       	81.06178       	92.59868       	92.54702       	87.504364      	92.51672       	86.9089        	92.60394       	87.035515      	92.61702       	87.621315      	92.65811       	86.210655      	82.96115       	80.65828       	81.0984        	80.01893       	79.785194      	84.59698       	92.18833       	90.18326       	57.766315      	
92.29069       	85.39106       	92.301         	92.450874      	85.26575       	92.21437       	92.34738       	86.17181       	92.31586       	89.45026       	77.88128       	78.647224      	76.077515      	81.27183       	82.92986       	80.01468       	79.86712       	79.59741       	79.10114       	80.64712       	80.84413       	77.466255      	75.84538       	92.19899       	92.1678        	88.91531       	92.30489       	91.00536       	90.64253       	92.32445       	83.71011       	83.10023       	76.354614      	74.58398       	76.67343       	81.541214      	80.73408       	80.86747       	79.98991       	80.46481       	78.96867       	81.9439        	81.84023       	79.74676       	81.00517       	80.36465       	79.11405       	80.36092       	82.33242       	77.58555       	80.65333       	76.15927       	85.55967       	82.77324       	87.19562       	92.35608       	85.63333       	92.304474      	86.31662       	76.26033       	78.88376       	80.74864       	81.302475      	79.77374       	79.88289       	78.835434      	80.11641       	80.71766       	82.819275      	81.186066      	79.634094      	79.76559       	81.49416       	80.27331       	78.60661       	79.90649       	78.73281       	81.78399       	76.24486       	92.43686       	92.57908       	86.437874      	92.6098        	90.543724      	92.555405      	91.28385       	91.37487       	92.593185      	84.704056      	80.19529       	92.71559       	80.715416      	78.68098       	83.51592       	75.782425      	76.65408       	78.47897       	88.94503       	92.32017       	73.31666       	
89.58058       	92.48156       	85.939705      	92.23839       	92.39796       	84.84143       	92.20403       	92.35644       	83.37696       	76.911934      	78.2022        	84.13109       	92.310745      	85.614456      	92.30506       	83.31481       	79.8265        	79.750984      	79.79872       	79.43739       	81.707954      	77.14704       	77.45725       	80.534874      	85.38142       	92.25409       	92.18171       	86.69316       	92.30776       	91.70631       	85.70418       	92.25653       	85.306526      	75.4096        	78.56111       	79.44769       	78.51187       	80.32631       	81.014885      	79.7384        	78.83895       	82.19122       	80.68644       	80.710236      	78.3029        	82.837685      	80.216064      	78.62447       	79.823586      	80.33062       	80.95272       	78.737366      	81.153725      	88.70667       	92.03186       	78.14556       	92.29342       	90.95194       	81.43761       	79.907234      	79.80987       	81.2437        	77.83223       	80.1847        	78.810165      	80.39768       	79.73305       	79.41579       	83.23774       	81.88901       	80.08031       	80.65539       	81.16615       	78.64057       	79.11958       	81.20114       	77.71715       	82.07271       	80.77989       	92.56065       	91.6449        	86.4861        	92.56907       	77.84473       	87.09381       	92.613434      	86.15571       	92.66064       	88.90986       	82.54803       	92.62731       	87.71441       	78.7837        	80.645454      	79.988686      	78.35614       	77.37166       	88.772095      	91.36232       	57.81416       	
85.98424       	92.43343       	73.64902       	92.215096      	92.37974       	73.71015       	92.22031       	92.39121       	87.611435      	92.24806       	90.2046        	77.782364      	79.16802       	83.380684      	77.57193       	78.71428       	81.12703       	79.99955       	77.426735      	81.027374      	79.657234      	78.94441       	80.22142       	86.769646      	92.30352       	89.64681       	92.27814       	92.42714       	87.77347       	92.2738        	92.37143       	82.88407       	79.35942       	78.42736       	81.993515      	79.55703       	82.20085       	83.2937        	80.53142       	76.32377       	83.03895       	80.81171       	79.64043       	81.80977       	79.71538       	76.84863       	88.40803       	92.33708       	85.16034       	92.38463       	80.87222       	92.36449       	82.99737       	92.35832       	87.13295       	77.730675      	92.426384      	82.654686      	77.04754       	80.16332       	79.92487       	75.52136       	82.23601       	81.13834       	79.290436      	82.639404      	80.610886      	78.33075       	82.0401        	81.255875      	80.93077       	81.11529       	80.20084       	80.02012       	80.67845       	79.67192       	80.68597       	83.50455       	76.36293       	92.39077       	92.347565      	86.35905       	92.62554       	87.36124       	92.51296       	89.186714      	92.41213       	92.5061        	85.73792       	82.05645       	81.46207       	81.36522       	76.628265      	79.18172       	77.32412       	77.74229       	80.240204      	79.26155       	86.6675        	89.405205      	
88.73266       	79.05568       	81.663635      	92.314545      	92.02246       	84.5851        	82.73247       	83.008575      	77.59869       	79.95566       	78.73954       	81.17882       	80.19906       	81.44216       	80.73898       	80.74059       	80.08023       	81.02386       	80.87595       	81.06119       	79.792694      	78.340454      	80.17582       	80.877556      	82.41066       	72.27552       	92.26935       	92.37631       	90.60008       	92.21404       	92.35111       	81.75089       	79.581955      	80.454506      	81.22131       	81.55275       	76.85013       	80.86204       	80.075745      	79.11641       	80.48234       	80.13143       	78.468056      	80.33398       	76.07324       	79.74068       	82.45861       	80.41936       	78.99545       	92.364136      	83.415535      	80.32931       	86.17764       	90.13201       	92.29794       	92.37163       	78.54495       	81.13093       	79.129395      	79.81269       	79.47873       	80.10755       	79.95763       	76.60182       	79.53005       	80.803764      	79.53272       	80.20068       	79.81299       	82.261734      	81.67009       	79.46556       	81.73712       	78.02416       	79.81483       	81.03367       	82.22352       	80.71467       	83.353165      	92.58217       	88.47651       	92.59102       	86.58391       	92.528496      	77.65375       	92.39623       	92.37651       	82.97894       	80.844124      	79.201454      	81.428665      	76.5931        	81.90894       	80.653015      	75.517685      	80.12174       	80.25953       	87.386215      	91.05449       	61.255283      	
92.17273       	90.619026      	92.15351       	92.33371       	91.38048       	80.33476       	80.83897       	79.29168       	82.28683       	79.15495       	76.72089       	79.332085      	80.89296       	80.06192       	80.11114       	80.88405       	81.198166      	80.20226       	80.92885       	79.91427       	77.490105      	78.70567       	80.76534       	80.785645      	79.20223       	92.2636        	92.40655       	85.43448       	92.20447       	92.29382       	79.30887       	83.279755      	78.69295       	81.31295       	79.72295       	76.751236      	81.57486       	77.9865        	80.53379       	79.02214       	78.63985       	82.23325       	81.95216       	80.98871       	80.55381       	80.22872       	81.17386       	81.1341        	81.138885      	80.32852       	79.79196       	79.2988        	80.91079       	78.71227       	92.48345       	78.585434      	81.9477        	81.56349       	75.62461       	80.68081       	78.76258       	80.01133       	82.03102       	81.92892       	78.46392       	81.09765       	79.523026      	79.75809       	82.12636       	77.973526      	82.57073       	78.16863       	79.856         	80.91464       	79.94859       	80.84645       	80.2107        	77.113144      	79.71418       	81.2346        	78.72731       	79.51061       	78.36191       	78.48318       	77.45397       	81.16328       	78.92452       	80.43404       	81.105995      	80.63094       	78.195755      	81.85655       	80.068634      	78.448944      	77.64122       	78.6841        	80.41617       	86.00356       	90.56656       	63.360092      	
87.810104      	92.24566       	86.48571       	92.30376       	92.38053       	82.19664       	79.50593       	80.04935       	79.88573       	79.95154       	79.21639       	81.21985       	80.72255       	80.53498       	80.18817       	78.8373        	81.5545        	79.992226      	80.6278        	81.7929        	77.55344       	80.09204       	83.73205       	80.51098       	87.353836      	92.34478       	92.43317       	86.69068       	92.34325       	92.39417       	86.89132       	92.36775       	91.87938       	83.26268       	79.162056      	82.75406       	80.88582       	81.7543        	79.243416      	78.19517       	76.46011       	80.20305       	81.01265       	81.002045      	81.109856      	77.97468       	80.02484       	79.77587       	80.206276      	81.05493       	79.81241       	77.628426      	80.05477       	76.9285        	78.59366       	77.78872       	79.17021       	80.5025        	78.52984       	80.274536      	81.08242       	79.94299       	79.052925      	79.96082       	79.572914      	80.97806       	80.23422       	77.92784       	80.60316       	80.87451       	79.80487       	80.91693       	79.701485      	80.96355       	79.91758       	81.04526       	80.91387       	80.79913       	79.53539       	81.93988       	81.44336       	79.3647        	81.13937       	82.00177       	79.731094      	79.515755      	81.920685      	77.15518       	83.136665      	82.150856      	78.11634       	78.85064       	79.09031       	80.1798        	79.88464       	80.371025      	87.37487       	91.848434      	59.7145        	87.18566       	
92.30813       	91.95634       	85.201225      	92.353004      	92.45873       	88.02575       	92.22777       	92.3783        	76.92032       	81.27687       	77.493195      	83.17078       	82.82262       	77.98232       	81.66948       	77.77315       	80.95819       	80.13989       	78.617424      	81.24809       	79.44355       	79.714874      	75.02819       	92.208755      	92.37919       	92.475845      	86.8273        	92.33123       	92.47234       	86.56846       	79.21034       	92.37638       	92.52573       	87.39632       	92.39553       	88.02385       	80.008896      	78.222725      	80.57668       	78.12494       	80.97248       	80.116394      	79.50443       	81.28067       	80.99788       	80.02467       	80.38252       	79.29563       	83.34906       	80.30097       	76.14851       	82.48942       	76.51666       	82.71515       	82.57593       	80.53283       	78.7128        	80.79511       	80.44711       	80.77176       	79.759735      	80.10894       	81.06854       	81.890465      	80.080894      	80.60226       	80.62845       	81.20666       	80.184166      	80.65719       	80.77797       	78.358444      	80.32521       	78.466286      	80.51521       	78.130356      	79.87453       	77.16542       	77.46976       	81.886894      	78.99488       	81.39308       	79.58537       	81.26851       	81.71107       	78.895805      	80.267654      	83.368805      	80.28464       	81.104965      	82.598526      	83.05703       	79.245255      	80.46831       	79.30451       	79.12299       	88.40704       	89.775276      	86.493225      	91.56771       	
92.5618        	92.254745      	92.412865      	92.50338       	92.62692       	85.487854      	92.267204      	92.395096      	91.82517       	91.4671        	92.33226       	83.07021       	82.52029       	78.598         	80.96247       	80.789314      	81.21449       	81.4198        	81.11345       	77.79651       	81.76916       	80.77472       	79.45007       	92.25275       	92.41166       	92.46775       	87.34994       	92.36392       	92.465805      	89.33898       	92.41039       	92.457016      	89.24847       	92.42175       	86.88665       	80.98212       	81.46077       	81.065674      	79.93595       	80.88364       	79.32173       	78.71512       	80.46761       	81.052605      	81.88048       	81.06565       	80.86072       	81.927025      	80.84965       	81.08927       	81.714165      	81.863464      	79.66966       	80.95374       	81.17515       	80.93463       	85.24396       	79.422134      	79.95741       	80.76345       	80.36833       	78.45009       	79.17106       	81.33671       	77.4986        	81.4665        	80.50086       	80.575134      	79.97189       	81.933495      	80.69553       	82.482574      	79.09364       	78.71614       	79.00034       	81.39069       	79.932076      	81.88857       	79.90865       	81.01612       	80.3894        	80.72782       	81.470726      	78.42759       	80.25237       	79.57727       	81.355515      	81.627945      	78.4249        	80.64002       	81.52845       	80.0151        	81.05279       	78.48631       	78.08068       	81.14067       	79.6389        	75.28569       	70.68321       	75.222305      	
92.64003       	92.23481       	92.385124      	92.51392       	92.62873       	90.15821       	92.27237       	92.39577       	92.51921       	92.5555        	88.7206        	92.27828       	92.35861       	78.5291        	83.677414      	81.38209       	78.79492       	80.513176      	84.63587       	76.13982       	79.73635       	92.297935      	92.44825       	85.737625      	92.31307       	92.447685      	80.93059       	92.30353       	92.461876      	92.11433       	89.06766       	92.50418       	92.50929       	83.38095       	75.80955       	80.63108       	76.65861       	79.04137       	79.10399       	79.16622       	81.73529       	76.9445        	80.02163       	80.13248       	77.318344      	79.62208       	78.37465       	82.33159       	81.14764       	81.95167       	79.64496       	82.663         	78.62711       	77.57213       	82.56624       	79.395966      	78.11035       	81.23906       	79.555786      	78.76958       	77.39367       	81.17135       	81.29093       	80.42392       	81.640686      	80.19279       	79.27103       	79.42974       	80.87854       	78.85712       	80.49951       	82.28735       	80.795685      	79.61723       	81.362434      	80.977905      	77.61194       	79.51012       	80.9417        	79.76079       	81.16604       	82.20163       	79.458115      	81.2711        	81.87274       	82.6535        	80.12701       	82.47897       	77.31042       	84.053925      	81.57357       	82.27646       	80.24149       	79.31582       	79.20406       	77.14596       	78.87678       	83.8753        	90.42888       	58.941532      	
87.50835       	92.51004       	92.62521       	92.70789       	89.74382       	92.36299       	92.46985       	92.581085      	91.627594      	92.23105       	92.37773       	92.48299       	92.23644       	86.34852       	92.34          	92.37388       	78.08884       	79.2981        	80.68781       	81.065994      	78.463615      	92.29676       	92.459724      	89.32517       	92.27784       	92.43045       	91.74907       	92.07279       	92.45577       	92.59749       	89.17538       	92.42538       	92.59603       	88.047066      	92.43129       	91.473465      	82.21664       	80.38923       	79.34303       	83.29751       	79.968605      	82.78259       	77.846565      	79.679924      	77.91538       	79.82181       	77.58741       	79.32698       	80.818054      	78.037674      	80.48184       	80.42521       	78.17715       	78.46106       	79.73295       	82.72727       	81.60778       	78.18853       	81.084435      	81.32608       	80.37702       	79.77616       	78.29334       	81.36623       	80.97838       	81.04176       	80.94854       	80.680954      	77.721054      	82.11203       	79.978874      	80.27394       	79.28154       	78.08078       	79.51208       	80.88244       	81.49708       	79.907166      	79.09974       	81.31524       	80.005844      	79.64206       	78.36301       	79.167625      	81.032684      	79.69667       	81.57177       	78.81805       	82.70076       	80.981995      	81.602165      	82.06624       	81.00375       	79.76034       	79.47491       	79.556984      	80.751656      	87.531006      	87.33427       	85.20601       	
92.52345       	92.72954       	85.158905      	92.37882       	92.50913       	92.63064       	92.72221       	87.1162        	92.34595       	92.47457       	92.59009       	90.65802       	92.20422       	92.361786      	92.4798        	85.10552       	92.21529       	92.3736        	80.74059       	92.21          	92.36984       	91.49534       	90.1609        	92.37079       	92.54804       	70.09304       	92.309906      	92.498024      	92.52134       	85.32322       	92.477585      	92.64474       	58.699482      	92.479935      	92.300316      	76.61195       	78.48677       	79.78032       	77.379234      	81.66523       	80.986435      	74.120514      	78.29469       	80.3231        	80.04783       	80.34622       	79.927574      	81.93247       	80.16448       	79.995056      	79.44398       	78.36141       	77.973724      	81.0629        	79.702545      	79.40289       	79.66586       	81.770805      	81.6369        	79.71119       	80.79579       	82.01755       	78.20111       	80.27141       	76.5032        	81.16083       	77.778206      	81.978905      	80.86598       	77.29845       	82.19943       	79.14068       	78.924446      	81.29684       	80.03861       	80.43373       	80.39785       	80.882256      	79.87601       	81.02868       	79.3856        	81.06552       	80.61619       	80.05915       	80.08675       	81.006256      	81.26261       	81.0374        	82.196594      	82.029         	81.02202       	79.90188       	80.26204       	79.38884       	79.61027       	79.14238       	80.77787       	78.40476       	70.97338       	75.84207       	
92.47452       	92.700294      	92.48465       	86.75245       	92.361946      	92.48731       	92.60171       	92.48524       	89.6393        	92.346344      	92.47697       	92.61628       	78.88246       	92.20593       	92.36164       	92.50207       	86.55859       	92.28968       	92.4616        	87.9533        	92.26275       	92.43724       	92.299324      	87.31804       	92.36562       	92.07783       	88.70652       	92.45713       	78.89386       	92.34912       	92.42884       	80.35226       	82.16278       	79.07013       	85.13078       	78.31772       	77.65109       	80.52154       	81.00662       	80.49159       	79.21452       	80.30872       	77.61933       	79.2244        	80.698586      	81.6941        	78.84502       	79.66228       	81.27011       	80.327736      	78.742905      	80.161705      	81.87995       	78.37819       	78.88951       	79.89141       	78.68957       	79.02788       	80.02643       	79.715195      	79.88117       	79.45074       	82.81916       	81.07335       	81.654854      	79.3689        	80.95819       	80.7033        	80.96408       	82.29079       	78.36031       	81.75572       	79.092995      	76.737045      	81.47286       	81.42018       	80.850945      	78.079475      	80.46495       	80.97031       	80.580925      	79.609085      	79.39545       	80.00509       	82.283356      	81.354355      	80.96457       	80.69552       	81.1529        	81.83859       	80.0462        	80.54984       	80.55321       	79.844185      	76.72958       	80.74569       	79.61007       	76.36433       	77.05126       	75.66876       	
92.47916       	92.415184      	92.550476      	92.70226       	92.65838       	89.06204       	92.39298       	92.53115       	92.650154      	91.889824      	92.221954      	92.358444      	92.53757       	92.688095      	90.600266      	92.17436       	92.36621       	92.521416      	91.69294       	92.1456        	92.38958       	92.54036       	88.317345      	92.352135      	92.508316      	86.02912       	92.39637       	91.07422       	92.37499       	92.5456        	87.93638       	92.467186      	92.62306       	90.33133       	82.824844      	78.71287       	79.90872       	82.07682       	81.397125      	80.84251       	80.05175       	77.55575       	80.15875       	77.57374       	81.82622       	83.898094      	77.779076      	80.77213       	80.50966       	79.93702       	77.780624      	80.37107       	80.38042       	79.298706      	80.163376      	80.438416      	79.23707       	79.95426       	79.608475      	79.81913       	81.9183        	80.73583       	80.38138       	80.80549       	80.55072       	79.83566       	80.96497       	81.96388       	79.40531       	81.254776      	80.49839       	76.41294       	81.66255       	80.95008       	81.91012       	80.42714       	79.74156       	78.46541       	79.92723       	81.417244      	81.3549        	78.89895       	80.67222       	79.4862        	80.89864       	80.19572       	81.17207       	80.44579       	80.4838        	78.72383       	78.3711        	81.01673       	80.99387       	78.23071       	82.84058       	75.545586      	78.07242       	79.28942       	79.18376       	78.765045      	
92.82609       	92.3365        	92.48819       	92.63847       	92.75317       	91.27387       	92.215706      	92.387215      	92.52897       	92.6787        	76.81711       	92.23285       	92.40484       	92.56471       	92.68659       	87.84655       	92.306015      	92.46246       	92.59945       	86.28569       	92.327034      	92.47708       	70.69264       	92.35788       	92.52398       	89.35332       	92.37123       	92.5456        	87.52283       	92.407265      	92.60639       	91.59147       	91.42296       	92.67854       	92.31084       	84.311325      	83.487114      	75.97876       	79.07593       	78.57038       	79.75181       	81.081154      	80.786804      	80.38126       	78.667496      	79.258415      	79.5576        	81.594986      	80.034546      	80.632416      	80.697914      	77.037994      	81.353775      	81.468216      	81.98651       	81.067986      	80.15294       	80.71056       	79.8709        	80.03949       	80.54682       	78.81112       	80.694435      	79.7611        	81.43004       	80.86974       	80.64913       	80.80641       	80.17078       	81.60411       	80.49599       	80.94366       	78.47468       	81.44893       	79.42951       	79.90406       	80.33667       	78.45563       	81.19219       	80.25425       	79.35412       	81.00565       	81.6283        	81.27936       	80.85926       	78.22436       	81.8824        	79.58333       	80.74129       	80.09269       	79.46339       	77.95449       	81.60627       	79.86457       	79.42725       	80.345764      	78.606         	80.23495       	79.85099       	78.61412       	
92.26807       	92.6269        	92.77406       	92.615005      	85.58362       	92.39933       	92.5812        	92.703125      	91.39367       	92.256454      	92.40895       	92.57725       	92.703964      	87.348366      	92.25004       	92.46418       	92.62807       	90.54588       	92.235466      	92.43864       	92.593994      	48.17292       	92.353645      	92.55327       	88.59328       	92.230736      	92.471855      	92.480255      	86.35268       	92.55492       	92.469604      	86.96266       	92.608376      	92.69224       	83.6274        	80.35775       	76.92402       	77.692604      	83.29039       	79.84622       	80.906494      	81.54308       	78.12586       	80.55841       	80.448         	80.490364      	80.672165      	81.20991       	80.12662       	78.26378       	81.25537       	80.26381       	81.21745       	80.639275      	82.28512       	81.11948       	80.104065      	82.750496      	81.93234       	80.193825      	80.016205      	80.55204       	80.56709       	79.92631       	82.880615      	81.05932       	79.59712       	81.43053       	80.77268       	80.25557       	80.76301       	81.04347       	79.985275      	81.144325      	80.69588       	81.33333       	80.52039       	78.46562       	81.9286        	80.91558       	79.90628       	80.30626       	81.07285       	81.93859       	81.07267       	81.313675      	80.14058       	80.168365      	79.421844      	78.61897       	81.841415      	80.01645       	81.05075       	78.55489       	80.46402       	79.48948       	81.06549       	81.02412       	77.42041       	77.57132       	
92.73979       	90.87813       	92.42414       	92.599556      	92.75521       	92.90786       	77.21948       	92.35495       	92.51515       	92.68707       	92.72712       	89.98588       	92.35992       	92.52927       	92.660965      	92.63029       	89.99412       	92.26489       	92.4075        	92.5371        	74.33812       	92.25497       	92.45483       	90.84185       	92.37537       	92.56918       	92.33592       	85.70509       	92.43574       	92.38771       	84.111855      	92.54942       	92.71818       	92.77651       	88.47192       	92.640884      	92.61789       	87.30705       	92.51743       	80.28287       	89.92397       	92.27612       	87.54436       	91.80055       	81.95628       	83.1514        	78.71996       	81.541435      	79.94578       	81.25761       	76.84544       	79.77889       	81.510475      	80.739334      	81.01744       	80.62201       	82.02016       	79.00866       	80.97073       	80.79412       	82.82829       	80.33256       	80.35477       	82.08839       	80.17619       	79.83788       	81.745094      	80.85595       	80.71876       	79.30438       	81.70491       	81.17351       	80.1303        	79.850136      	81.2036        	80.95829       	78.84329       	81.81823       	80.13213       	81.59302       	79.54757       	80.96721       	80.59741       	81.265366      	79.30999       	80.89639       	78.69763       	78.22402       	82.065025      	79.81143       	78.21512       	80.261894      	80.06204       	80.84915       	80.662094      	78.212395      	78.16201       	78.13195       	79.5294        	76.10253       	
92.08411       	92.58744       	92.731926      	92.89373       	92.52812       	87.56089       	92.56182       	92.70966       	92.85282       	86.51611       	92.303856      	92.49882       	92.655655      	92.7867        	89.85352       	92.32136       	92.560905      	92.73891       	92.33182       	92.18402       	92.461655      	92.66088       	92.041084      	90.882126      	92.52661       	92.70327       	45.430668      	92.47013       	92.64798       	92.80429       	88.99808       	92.43123       	92.542404      	92.61893       	86.90551       	92.616714      	92.75989       	90.361565      	92.53277       	92.663536      	88.5851        	92.610596      	88.13925       	81.72885       	79.13423       	79.68361       	82.10605       	80.50051       	81.46342       	79.41869       	79.163055      	82.159615      	80.67951       	80.63546       	82.263214      	80.08015       	80.01994       	81.73801       	80.58853       	81.277756      	79.92034       	78.640465      	80.997055      	78.83555       	80.29956       	81.44698       	81.20359       	80.684326      	80.43644       	81.76676       	80.49153       	79.58274       	80.147194      	80.41738       	80.62285       	79.59796       	80.06559       	80.282646      	80.95381       	81.05594       	80.67854       	80.72135       	79.86213       	82.203835      	80.66382       	80.9178        	79.822624      	80.25536       	79.13079       	79.505035      	78.53559       	78.87311       	81.31394       	81.115654      	80.62068       	78.76855       	80.54901       	92.40598       	92.45801       	90.68103       	
40.416126      	92.659645      	92.837135      	93.00023       	79.096214      	92.53548       	92.71529       	92.8712        	92.16857       	92.269775      	92.48355       	92.66146       	92.80583       	91.52937       	92.23638       	92.45279       	92.63455       	92.81694       	91.03924       	92.35288       	92.570755      	92.747826      	92.776215      	89.42771       	92.504875      	92.68013       	92.41279       	92.342384      	92.60638       	92.767746      	91.35198       	92.47694       	92.66981       	92.83575       	78.85825       	92.57072       	92.7129        	92.46301       	89.22659       	92.31351       	91.947365      	83.88808       	91.2051        	92.05607       	81.23548       	78.968414      	80.1363        	79.51309       	80.51099       	80.671036      	79.188286      	80.39327       	81.28492       	81.56652       	80.748314      	81.107506      	80.50131       	81.4212        	80.553566      	79.71478       	81.65436       	79.74153       	80.93872       	80.96623       	80.11949       	81.160965      	80.1567        	80.76498       	80.09094       	80.778824      	81.77041       	80.835724      	79.77394       	81.090294      	80.07116       	80.194855      	80.2124        	81.150925      	81.23856       	80.626915      	79.45551       	80.53834       	81.041336      	78.73614       	80.63682       	79.09751       	80.014336      	81.02812       	78.03891       	79.17818       	80.20714       	80.10826       	80.66378       	79.69627       	79.636696      	77.61646       	81.475685      	92.10921       	91.97159       	68.32654       	
93.0253        	92.6033        	92.788055      	92.945854      	92.36641       	92.28522       	92.69361       	92.86763       	92.39767       	92.26248       	92.46883       	92.642166      	92.83237       	91.97937       	92.210884      	92.41999       	92.64248       	92.7944        	92.82994       	88.41322       	92.46109       	92.665535      	92.818         	92.64673       	86.18389       	82.74877       	78.37112       	92.2057        	92.70512       	92.83523       	90.20313       	92.5038        	92.684425      	92.807945      	90.246216      	92.6019        	92.75884       	90.67785       	90.75902       	92.667435      	92.75562       	89.35639       	92.59267       	91.533554      	81.77482       	81.80934       	81.74564       	78.308556      	81.31136       	79.55257       	80.42277       	80.051025      	77.45687       	82.144455      	77.46696       	80.241005      	81.840515      	81.88516       	79.30842       	82.089386      	79.26308       	78.42999       	82.34924       	79.58689       	79.91069       	81.70271       	79.314156      	80.38283       	79.31473       	81.09378       	79.99371       	79.18191       	80.22381       	81.40615       	80.39682       	79.66469       	81.07037       	80.51963       	79.01486       	80.99112       	78.953445      	81.650444      	79.1318        	81.2897        	79.902405      	78.70775       	79.605316      	81.350395      	78.27417       	79.63345       	81.06492       	78.25135       	80.93286       	79.93001       	78.956955      	82.15581       	78.99477       	86.97073       	92.157814      	92.22154       	
92.808754      	90.85703       	92.588905      	92.77791       	92.92499       	91.14661       	92.54508       	92.720085      	92.87257       	90.42464       	92.345245      	92.56262       	92.74664       	92.872665      	83.14753       	92.369835      	92.549866      	92.727684      	92.78026       	66.237114      	92.414246      	92.61379       	92.77861       	92.895065      	90.40144       	92.48708       	92.65632       	92.81646       	90.18717       	92.52661       	92.69975       	92.825356      	79.58775       	92.51619       	92.68163       	92.002         	92.250496      	92.58935       	92.72571       	89.49792       	92.47541       	92.60834       	79.898865      	80.841995      	82.46649       	81.6743        	78.88327       	80.17645       	79.524185      	81.68142       	76.10974       	79.128654      	79.66927       	79.71261       	79.83276       	78.50896       	77.20588       	77.15508       	79.7175        	81.28118       	80.046394      	80.51933       	80.069466      	80.474884      	80.32113       	75.70162       	77.829636      	79.652214      	81.385086      	79.5827        	78.32967       	80.71023       	78.067894      	80.465256      	79.5761        	80.735565      	80.00908       	80.78207       	76.46472       	79.41127       	80.21122       	78.33753       	79.49092       	78.6812        	81.704666      	80.099075      	80.424         	78.03219       	82.15948       	76.34245       	81.54577       	75.37343       	81.798706      	82.665245      	83.95762       	92.338196      	92.05355       	84.28          	88.287506      	84.646996      	
92.97433       	92.599556      	92.784294      	92.94774       	91.83695       	92.591484      	92.75856       	92.92765       	92.05007       	92.329155      	92.5654        	92.7296        	92.8835        	92.259575      	92.22425       	92.49065       	92.692215      	92.81725       	92.54724       	92.31255       	92.52302       	92.702095      	92.84278       	92.86157       	88.12776       	92.55017       	92.72687       	92.83435       	83.999405      	92.55321       	92.70021       	92.81277       	87.49777       	92.53855       	92.69477       	92.38682       	90.163895      	92.60116       	92.72104       	91.287575      	92.47047       	92.60384       	55.953247      	80.19614       	79.77378       	78.29857       	81.598915      	78.43227       	80.01227       	80.71812       	77.19877       	80.35285       	80.11492       	78.52046       	81.81113       	79.233315      	76.70272       	76.256996      	78.416855      	80.67875       	80.929245      	81.53009       	80.54109       	80.08177       	81.1318        	78.291084      	80.97114       	79.7522        	79.61764       	81.49128       	78.96581       	79.960526      	80.33655       	80.05726       	81.053375      	81.581924      	80.541214      	79.580215      	79.099304      	79.02065       	80.862236      	79.790276      	79.28027       	80.68738       	79.57862       	79.122345      	80.81321       	79.9853        	79.486115      	80.173         	80.37007       	79.675385      	78.881195      	80.99301       	81.01984       	81.164474      	78.90117       	83.5649        	82.34086       	82.73191       	
92.71539       	93.04528       	82.70451       	92.69335       	92.87064       	92.99494       	89.12109       	92.50547       	92.71632       	92.847466      	92.93119       	84.25726       	92.48838       	92.67071       	92.845985      	92.95628       	89.22911       	92.43968       	92.64038       	92.8006        	92.91314       	79.01273       	92.51376       	92.68442       	92.81851       	92.92568       	90.27526       	92.59559       	92.72249       	92.85644       	84.07247       	92.52537       	92.672455      	92.76233       	90.15575       	92.57722       	92.726555      	89.895096      	92.496254      	92.65759       	92.63372       	79.40762       	81.5851        	80.864845      	78.78444       	79.737656      	78.45068       	75.997665      	81.05535       	80.27157       	80.510086      	81.74285       	78.80655       	81.84585       	79.50039       	77.97043       	82.211136      	80.38781       	81.43253       	78.12663       	78.642494      	82.81232       	76.21011       	80.41404       	79.00046       	80.23303       	80.69382       	81.177         	80.411026      	79.75122       	78.80419       	78.64532       	77.6787        	78.5988        	82.3019        	78.235054      	82.56707       	80.99219       	77.75147       	77.762856      	79.32087       	79.64438       	80.04964       	80.85954       	79.30926       	80.90769       	79.01619       	80.664894      	79.30927       	81.70217       	79.694695      	78.80945       	79.836334      	80.230804      	81.1944        	77.38351       	81.43356       	89.76612       	92.31692       	92.38617       	
93.04972       	92.59283       	92.78355       	92.95637       	93.04597       	90.52362       	92.64223       	92.82709       	92.94195       	92.57054       	92.14851       	92.5981        	92.74555       	92.87701       	92.572685      	89.23832       	92.58884       	92.73682       	92.86261       	92.716194      	89.25936       	92.57582       	92.73331       	92.85324       	92.88903       	88.473526      	92.646614      	92.77126       	92.88422       	82.353386      	92.547264      	92.70293       	92.71762       	90.36954       	92.53509       	92.682396      	91.61671       	92.4413        	92.602646      	92.72549       	88.46501       	79.45619       	80.17142       	78.45286       	79.77522       	80.20781       	78.69832       	82.5041        	78.75763       	81.28225       	79.627495      	79.164406      	77.330055      	81.22399       	78.35277       	79.05534       	78.537445      	79.51431       	82.28916       	76.3647        	78.81641       	79.94543       	82.32593       	82.0698        	80.002106      	79.96763       	80.85664       	79.90404       	80.76822       	80.93458       	80.53244       	78.55499       	80.41257       	78.69217       	78.613594      	82.632515      	79.46889       	81.13325       	81.39132       	78.72984       	80.02702       	80.91196       	80.491005      	79.23238       	79.533966      	80.11168       	79.01747       	81.15565       	80.33384       	80.8095        	76.90267       	78.62581       	79.179016      	79.37906       	84.77785       	92.28064       	92.14274       	80.10899       	81.80727       	82.728195      	
92.989006      	92.65208       	92.849075      	92.98372       	93.00403       	89.99124       	92.653305      	92.82015       	92.93752       	92.51345       	92.39734       	92.612755      	92.78241       	92.892265      	92.77482       	84.97449       	92.546715      	92.7197        	92.85062       	92.91373       	87.17324       	92.57235       	92.74023       	92.8713        	92.671234      	90.46792       	92.610695      	92.71861       	92.84227       	87.23382       	92.556984      	92.68043       	92.77528       	88.574196      	92.530365      	92.67417       	92.75824       	85.110855      	92.57575       	92.69272       	74.45141       	81.27551       	82.99905       	76.9771        	81.80947       	80.54029       	80.94696       	83.38392       	82.81196       	80.61322       	78.96568       	83.147064      	79.03505       	79.22609       	81.64303       	81.63715       	79.298874      	81.79016       	79.934494      	78.76003       	78.95537       	78.58811       	77.95656       	80.24739       	80.8821        	79.87883       	80.667854      	79.99902       	79.197426      	79.98171       	78.77342       	81.73869       	77.30408       	79.18885       	81.311005      	80.13313       	81.68949       	79.567215      	81.05476       	80.12033       	79.7441        	79.67959       	80.10018       	78.36205       	79.2529        	79.92351       	79.662704      	80.51559       	80.18097       	79.48824       	80.04906       	79.209335      	80.79665       	78.28301       	79.15173       	88.07654       	92.39247       	92.5005        	91.97022       	53.682148      	
92.531906      	92.905205      	93.0256        	89.11368       	92.531586      	92.746346      	92.90007       	92.987465      	89.88943       	92.56742       	92.72639       	92.878525      	92.965385      	83.561874      	92.483185      	92.67162       	92.811195      	92.909584      	81.933365      	92.50685       	92.67312       	92.7911        	92.90646       	88.47465       	92.55983       	92.701355      	92.82781       	92.76807       	85.023254      	92.57903       	92.716965      	92.83915       	87.301315      	92.54769       	92.68293       	92.777504      	87.74204       	92.55048       	92.681366      	92.76995       	86.0691        	92.56775       	92.61166       	89.68492       	92.57548       	88.91199       	80.92215       	79.81879       	78.82501       	78.12771       	78.65959       	76.447044      	80.53899       	78.738464      	79.306305      	77.04354       	78.16783       	80.1292        	82.30885       	79.06375       	79.9853        	76.274475      	79.62078       	79.245125      	79.54717       	81.819046      	78.04915       	80.3848        	78.095085      	81.21802       	78.806564      	81.860916      	78.99969       	78.07992       	81.84702       	78.02293       	79.54274       	79.530075      	82.03531       	79.85368       	80.65652       	78.808304      	80.66734       	79.449776      	79.641914      	79.17145       	79.9333        	81.23033       	80.787544      	80.67141       	78.6647        	78.56763       	79.70804       	80.20121       	82.3596        	81.25887       	92.269295      	92.36286       	92.45914       	92.512436      	
92.85818       	92.66968       	92.834404      	92.949684      	92.18386       	92.47664       	92.67384       	92.83638       	92.95716       	86.79934       	92.54224       	92.71399       	92.85437       	92.96088       	89.89898       	92.53924       	92.704285      	92.80559       	92.917404      	79.23684       	92.52445       	92.692085      	92.80634       	92.86156       	85.31963       	92.59328       	92.74709       	92.83702       	92.665764      	90.581276      	92.66387       	92.78576       	92.877556      	85.51251       	92.62189       	92.73939       	92.824936      	90.14851       	92.541145      	92.68257       	92.68672       	89.61456       	92.57534       	74.14623       	81.92183       	80.716705      	79.20442       	82.701454      	79.397194      	77.22136       	82.72462       	79.80283       	77.674164      	80.29134       	80.75003       	80.04663       	92.45958       	76.50714       	77.71476       	77.51656       	91.891785      	79.41406       	79.3181        	80.244705      	80.8159        	79.785805      	82.06518       	77.13718       	78.54807       	79.12673       	80.75878       	79.155106      	79.59812       	77.11812       	81.56328       	79.08147       	79.98295       	81.354965      	79.571915      	79.139565      	79.97415       	77.59081       	80.07384       	80.05966       	79.392296      	77.33009       	78.1245        	80.113945      	80.208275      	80.53371       	78.91594       	75.80974       	77.899925      	79.28759       	83.725876      	92.25841       	92.437805      	92.50201       	54.357456      	86.50859       	
93.073654      	92.65803       	92.85173       	92.962845      	92.84852       	87.58061       	92.65482       	92.81293       	92.92592       	92.62435       	87.363014      	92.66402       	92.81282       	92.927284      	92.08253       	92.50341       	92.693954      	92.79629       	92.89932       	85.13127       	92.53492       	92.71056       	92.81617       	92.91968       	85.9159        	92.55056       	92.69461       	92.82256       	92.947945      	88.83482       	92.59244       	92.70265       	92.83326       	92.542015      	90.13208       	92.607704      	92.75163       	92.586716      	90.32528       	92.56211       	92.690056      	86.867966      	92.41949       	92.459854      	89.21529       	92.52329       	82.07861       	76.94726       	82.130516      	79.97531       	77.323555      	78.53806       	77.6822        	77.96918       	80.18923       	81.450264      	80.6537        	79.9416        	77.974335      	80.21729       	77.72477       	83.09819       	80.83123       	75.78476       	81.333275      	78.91114       	81.8845        	81.221596      	77.77003       	76.7649        	80.11265       	79.653656      	79.448555      	78.12273       	80.082375      	79.825325      	78.60098       	79.765854      	79.46374       	79.13306       	78.02955       	77.60062       	79.92014       	81.06427       	79.57467       	78.63799       	78.336         	79.770996      	80.703606      	79.46457       	75.73219       	76.69657       	77.6224        	78.95178       	80.33788       	80.02811       	92.257965      	92.356255      	92.424644      	92.498825      	
92.99078       	92.6534        	92.81493       	92.92219       	92.09731       	92.50326       	92.69077       	92.84582       	92.939224      	89.74548       	92.537926      	92.71535       	92.84157       	92.90875       	90.098915      	92.58503       	92.73639       	92.85205       	92.59406       	85.38036       	92.605064      	92.75223       	92.86551       	91.793045      	92.55167       	92.69724       	92.84669       	92.90288       	86.310524      	92.61065       	92.72734       	92.864         	92.484795      	92.49054       	92.63987       	92.774704      	92.82225       	90.07702       	92.56949       	92.70676       	87.410095      	92.422966      	92.581604      	89.15053       	92.45982       	92.641235      	79.85794       	92.452324      	92.431114      	76.67873       	79.99271       	77.46706       	78.927666      	79.16596       	78.43914       	78.57059       	78.63457       	81.29169       	78.00962       	80.546936      	78.7669        	82.02339       	79.21273       	78.526474      	81.87587       	76.62437       	80.807175      	81.010735      	78.72473       	80.705894      	78.5901        	79.67606       	80.875465      	77.56629       	80.41806       	81.45686       	79.383865      	79.55401       	78.34573       	78.22748       	80.77618       	79.74953       	77.71096       	80.28545       	78.0898        	79.18896       	77.68205       	78.62418       	80.555725      	75.8915        	79.02386       	79.71535       	80.31442       	87.36166       	92.31322       	92.124535      	84.71779       	86.91077       	85.710144      	83.63644       	
92.77154       	91.62377       	92.48553       	92.68098       	92.80411       	92.80819       	88.033775      	92.64773       	92.781784      	92.87998       	78.67557       	92.524315      	92.665855      	92.812614      	92.6079        	87.65918       	92.6361        	92.78359       	92.90483       	86.387276      	92.52108       	92.62655       	92.754265      	92.830284      	87.290825      	92.6119        	92.75802       	92.88703       	92.92146       	90.40881       	92.62795       	92.770584      	92.89882       	89.728004      	92.49518       	92.66449       	92.82492       	92.66317       	85.18642       	92.60451       	92.75611       	90.23043       	92.439804      	92.600975      	92.15859       	86.12004       	92.532814      	89.83438       	92.41682       	92.5353        	80.502106      	83.00392       	78.24329       	78.9278        	80.7362        	78.15504       	76.18452       	81.97704       	79.434395      	76.74426       	78.45592       	78.4345        	78.564735      	80.613846      	81.280846      	80.782104      	80.594635      	79.355385      	79.5955        	80.10356       	79.794         	80.284164      	78.60804       	81.1314        	79.008415      	79.65649       	81.217766      	78.43592       	79.8144        	80.47707       	80.13845       	79.97084       	79.21233       	78.37888       	79.04275       	78.651024      	80.13965       	79.785         	78.26925       	79.889175      	79.18964       	80.04215       	79.569435      	77.46654       	92.16133       	92.35551       	89.618286      	87.49357       	87.48036       	81.84371       	
86.13386       	92.75968       	92.84081       	85.59685       	92.64815       	92.78692       	92.65817       	85.9981        	92.622574      	92.758026      	92.78579       	90.05403       	92.636696      	92.77136       	92.86022       	90.489944      	92.571655      	92.74666       	92.85126       	91.19639       	92.567726      	92.70957       	92.82255       	92.87512       	88.6098        	92.63616       	92.79034       	92.89209       	91.15469       	92.595634      	92.73614       	92.87414       	92.92862       	88.32501       	92.608925      	92.72244       	92.8827        	80.46358       	92.56433       	92.76131       	92.86047       	89.695816      	92.63247       	92.77241       	88.727745      	92.49876       	92.5948        	86.19437       	92.491234      	90.628         	91.10286       	92.5817        	54.12079       	92.39739       	86.69619       	80.070114      	78.73834       	80.41977       	75.63773       	79.91261       	78.52314       	76.53409       	79.6138        	80.90685       	80.64199       	80.90289       	81.300125      	80.50905       	80.85887       	79.77989       	79.706245      	78.46488       	79.33135       	78.06369       	79.559296      	77.71841       	76.138985      	78.189735      	89.20562       	92.31655       	77.89686       	80.2004        	76.51973       	76.28519       	78.00306       	79.106804      	78.45375       	79.147385      	79.01533       	79.0901        	78.35649       	80.21653       	82.07333       	80.894264      	76.13759       	87.17452       	92.23542       	92.317795      	92.389496      	92.239914      	
92.61774       	89.26667       	92.53911       	92.702515      	92.73666       	89.552765      	92.58866       	92.69858       	88.73524       	92.50682       	92.67785       	92.76723       	85.32729       	92.323135      	92.39767       	92.36239       	85.31543       	92.57316       	92.73866       	92.868904      	82.925446      	92.59007       	92.75154       	92.87329       	92.25142       	90.85176       	92.70435       	92.841515      	92.931694      	85.78002       	92.65904       	92.78524       	92.925026      	90.26926       	92.52625       	92.69592       	92.846176      	92.97264       	89.41945       	92.60162       	92.77849       	92.8806        	85.6988        	92.59217       	92.79215       	79.71522       	92.51673       	92.68441       	76.62111       	92.45901       	92.621826      	86.30147       	92.4941        	83.79116       	92.45325       	80.022095      	78.768875      	81.539345      	77.186745      	92.41811       	83.76625       	78.32949       	78.61103       	79.798225      	78.611404      	77.8134        	80.72458       	81.602844      	76.91446       	77.12759       	84.70724       	92.428535      	59.066875      	80.78499       	76.04205       	77.81741       	79.53139       	90.891174      	91.99114       	79.635         	80.00782       	80.027596      	79.36413       	78.48515       	74.73881       	79.734184      	81.090614      	79.45332       	78.48906       	80.561134      	78.99033       	80.794815      	77.95388       	81.86134       	82.768005      	77.08436       	82.90673       	89.65994       	92.275185      	92.34684       	
85.7525        	92.66437       	85.69957       	92.52088       	92.67478       	85.252846      	92.51876       	92.60377       	89.24682       	92.562836      	92.67499       	85.30468       	92.52247       	92.68639       	92.728195      	88.584885      	92.594826      	92.746216      	92.846634      	79.11185       	92.57704       	92.737816      	92.83888       	92.86933       	85.623         	92.677536      	92.82535       	92.95982       	85.56516       	92.70042       	92.826935      	92.98179       	91.538605      	92.54431       	92.72718       	92.88944       	92.96947       	88.80759       	92.68094       	92.833305      	92.913086      	86.05471       	92.66457       	92.83736       	86.98417       	92.49428       	92.68552       	89.06069       	92.4632        	92.66294       	87.307526      	92.401726      	92.62201       	87.775856      	82.242714      	80.94565       	79.97085       	78.62579       	78.464935      	92.44959       	78.50262       	78.38012       	78.72694       	78.75256       	79.43706       	80.34609       	78.54533       	80.34181       	78.08662       	77.91646       	82.0502        	92.42285       	92.343216      	88.86105       	92.46846       	83.02249       	92.33565       	92.55041       	88.74818       	92.336075      	92.330315      	88.53881       	92.398315      	70.599884      	92.22895       	81.75533       	83.898315      	76.27569       	76.63984       	80.32647       	78.58105       	80.88851       	79.87889       	81.75905       	76.83308       	92.20285       	92.345116      	92.46479       	92.434715      	83.054276      	
86.38332       	87.00473       	92.58108       	91.27844       	92.449356      	92.59802       	76.56325       	92.47829       	92.425         	89.73099       	92.56068       	92.62053       	88.559944      	92.52883       	92.66815       	79.210014      	92.479195      	92.573906      	92.63084       	85.64744       	92.48813       	92.567345      	92.61137       	91.970085      	90.87994       	92.72116       	92.85936       	92.98956       	89.0256        	92.57466       	92.76345       	92.9074        	93.05055       	81.93283       	92.60434       	92.81433       	92.97616       	92.97084       	90.14116       	92.736496      	92.92235       	92.84334       	85.531204      	92.69805       	92.856445      	85.88594       	92.600266      	92.796844      	77.0782        	92.39657       	92.56923       	78.85987       	92.54941       	92.71716       	86.16371       	92.539154      	92.18558       	87.06828       	92.60985       	78.02086       	92.44604       	86.59972       	83.19677       	92.41263       	59.45479       	79.13058       	81.15316       	75.652695      	92.22581       	92.10998       	88.84789       	92.51688       	90.13115       	92.38529       	92.58501       	70.48615       	92.43583       	92.592705      	87.0885        	92.42013       	92.56436       	88.46783       	92.35408       	92.30203       	86.55035       	92.35808       	88.98166       	92.32871       	92.419426      	88.37189       	92.30074       	88.72704       	92.22131       	91.51578       	85.88656       	92.2701        	92.39584       	92.4486        	55.425674      	89.39639       	
89.77734       	89.54639       	92.40222       	87.049934      	92.48339       	92.51077       	74.73551       	92.314125      	92.38652       	86.80159       	92.54483       	92.546715      	87.13688       	92.55869       	92.69106       	87.31164       	92.26179       	92.448586      	78.58675       	92.44724       	92.56529       	92.66736       	92.17883       	88.311516      	92.695755      	92.85994       	92.99267       	92.07463       	92.51564       	92.692345      	92.860146      	93.0202        	88.54244       	92.60149       	92.76717       	92.95363       	93.09964       	90.314026      	92.64959       	92.86772       	93.03044       	90.682724      	92.56401       	92.78497       	92.94838       	85.81043       	92.50142       	92.719185      	92.66087       	90.169945      	92.66555       	92.60053       	85.86782       	92.5997        	92.15885       	90.25972       	92.6019        	89.28328       	92.49991       	92.68993       	50.883877      	92.46646       	92.29993       	88.386856      	92.57471       	91.9731        	90.91985       	92.56081       	87.439         	92.41395       	92.62341       	91.85845       	92.11701       	92.528496      	92.35837       	90.15417       	92.53224       	92.62995       	87.78044       	92.4133        	92.59213       	89.92001       	92.39194       	92.56697       	88.562416      	92.38294       	92.52416       	86.18839       	92.31983       	92.480606      	86.08462       	92.25517       	86.920555      	92.21695       	92.32384       	79.90689       	81.14624       	87.87808       	90.96249       	92.30145       	
82.779594      	80.02191       	78.302536      	88.251305      	92.53258       	86.44063       	92.525024      	65.35554       	92.50292       	85.53039       	78.91302       	74.996765      	92.52097       	56.20483       	92.50695       	92.65237       	92.14671       	92.14694       	92.62694       	92.760826      	92.29315       	90.198326      	92.6889        	92.81245       	92.95986       	92.40806       	92.31226       	92.687836      	92.84053       	92.93354       	92.05163       	92.23866       	92.72526       	92.906624      	93.07442       	90.56196       	92.61095       	92.8228        	92.98463       	93.13746       	85.896095      	92.661674      	92.87641       	93.018105      	90.1672        	92.70525       	92.89718       	92.65588       	92.47984       	92.68939       	92.88778       	89.56498       	92.59501       	92.78076       	76.3957        	92.62701       	92.78711       	89.10335       	92.64657       	92.60633       	90.39255       	92.655975      	90.29219       	92.50961       	92.70286       	84.92734       	92.464516      	92.65272       	76.64962       	92.528824      	92.712234      	89.05342       	92.40256       	92.60556       	92.70706       	90.161224      	92.504456      	92.65668       	90.706985      	92.34232       	92.53277       	92.66484       	84.85715       	92.42755       	92.59446       	90.91585       	92.353         	92.519135      	92.504875      	88.61279       	92.399025      	92.28373       	86.64105       	92.339294      	92.48525       	88.60237       	86.48938       	92.26514       	92.353355      	92.42063       	
77.22576       	79.77131       	77.2166        	80.08568       	91.94018       	92.21182       	86.89795       	92.26553       	78.20409       	76.94229       	82.9168        	80.25355       	74.56341       	92.5001        	92.63101       	87.347664      	92.56557       	92.73682       	92.838486      	85.00796       	92.57913       	92.750534      	92.89694       	93.0244        	89.12278       	92.62522       	92.80297       	92.96014       	93.09871       	87.88591       	92.74951       	92.92563       	93.098274      	92.43374       	90.7849        	92.83558       	93.021286      	93.15639       	84.593956      	92.70111       	92.90788       	93.06425       	89.84115       	92.63438       	92.86753       	93.03543       	84.87998       	92.623955      	92.84853       	92.86865       	85.18887       	92.68697       	92.84047       	88.71079       	92.588745      	92.72139       	86.23325       	92.68816       	92.733406      	85.458664      	92.67839       	92.84429       	73.53469       	92.59323       	92.76554       	92.04444       	91.011086      	92.66566       	92.8398        	91.12924       	92.49423       	92.67207       	92.802444      	88.032104      	92.47466       	92.65334       	92.68649       	88.36497       	92.42736       	92.596634      	91.48315       	92.29457       	92.49108       	92.663536      	76.271416      	92.38395       	92.55705       	92.663475      	85.12778       	92.40671       	92.56123       	91.93099       	90.99279       	92.35951       	92.51345       	85.38834       	92.21524       	92.32632       	92.39406       	92.45025       	
76.838615      	79.04819       	77.40212       	78.78015       	81.1047        	76.17858       	78.7176        	80.44847       	81.693184      	78.28038       	76.22021       	80.46329       	79.035484      	89.942184      	92.485306      	87.458755      	92.488556      	92.66043       	92.80438       	89.99361       	92.56157       	92.72595       	92.89425       	93.040054      	87.61717       	92.64229       	92.81473       	92.97303       	93.11842       	86.78449       	92.62624       	92.843636      	93.02327       	93.15841       	82.663185      	92.71019       	92.91523       	93.0972        	93.08504       	87.62962       	92.83779       	92.99384       	92.717766      	87.97427       	92.8375        	93.014046      	90.28593       	92.64627       	92.84844       	92.9819        	88.41834       	92.65189       	92.863396      	88.691666      	92.60027       	92.82545       	89.92102       	92.627815      	92.814896      	92.8119        	85.81648       	92.67774       	92.84511       	92.00877       	92.56639       	92.77016       	92.90764       	89.80886       	92.60098       	92.783455      	92.89823       	76.41933       	92.526184      	92.6936        	92.849754      	85.262634      	92.4662        	92.65233       	92.75305       	84.63258       	92.446556      	92.619514      	92.752625      	87.48663       	92.41692       	92.575264      	92.71353       	85.92746       	92.36706       	92.53593       	92.66098       	85.292854      	92.26494       	92.48156       	92.286896      	85.34577       	92.309105      	92.42462       	92.494995      	92.55465       	
80.14517       	74.57431       	82.222336      	83.02374       	77.494095      	77.35483       	80.61858       	79.28596       	81.74622       	76.93315       	79.129906      	78.85371       	92.43499       	92.61669       	81.41681       	92.54559       	92.69402       	92.85143       	92.72057       	90.234375      	92.68394       	92.85279       	93.018654      	93.16318       	87.97314       	92.7448        	92.92988       	93.0879        	93.23646       	93.36744       	87.01216       	92.723404      	92.92126       	93.09637       	93.232635      	90.055374      	92.77766       	92.99561       	93.14503       	92.84332       	92.60516       	92.92356       	93.07985       	91.13585       	92.618195      	92.8366        	93.006775      	85.67156       	92.49576       	92.67963       	92.771065      	90.594406      	92.69916       	92.89678       	89.2329        	92.624054      	92.821014      	92.94597       	88.626755      	92.6931        	92.866066      	92.99195       	89.995094      	92.47325       	92.63339       	92.61763       	85.303024      	92.49262       	92.605125      	92.587036      	87.84529       	92.495026      	92.69515       	92.842224      	89.240265      	92.40411       	92.62152       	92.767075      	92.51248       	88.95342       	92.49913       	92.65569       	92.77126       	87.648476      	92.0857        	92.13612       	92.351326      	84.937035      	91.908134      	91.98074       	92.03459       	91.602554      	91.56204       	91.91136       	91.99895       	91.98656       	85.516426      	91.79054       	91.67595       	91.56909       	
80.383224      	79.67022       	78.85098       	79.43687       	82.74582       	74.79383       	78.21513       	83.318825      	92.47681       	88.07884       	92.551346      	88.073784      	92.47097       	92.630135      	87.392525      	92.555046      	92.72305       	92.875626      	93.02881       	80.34063       	92.57224       	92.76305       	92.947296      	93.108154      	93.12501       	89.82207       	92.74944       	92.96211       	93.025345      	93.09136       	93.149925      	90.344955      	92.84513       	93.0336        	93.17259       	93.27503       	90.15615       	92.87485       	93.053566      	93.18367       	92.83422       	85.99735       	92.95058       	93.07799       	92.98344       	90.10709       	92.823044      	92.99043       	92.33192       	92.31452       	92.82381       	92.97375       	91.91479       	92.64806       	92.82514       	92.98078       	90.345085      	92.70896       	92.86658       	92.96962       	88.07711       	92.73133       	92.90009       	93.01635       	81.5952        	92.61938       	92.79408       	92.92526       	92.8369        	87.00078       	92.66214       	92.82245       	92.96499       	89.67649       	92.547356      	92.70767       	92.83311       	91.063446      	92.37135       	92.57058       	92.692375      	92.82106       	89.188835      	92.42072       	92.58582       	92.716736      	90.343666      	92.43016       	92.59861       	92.72588       	85.563416      	92.34854       	92.47006       	92.64775       	92.38503       	92.17387       	92.31812       	92.41321       	92.47418       	92.52335       	
79.24319       	80.65906       	78.54809       	81.58564       	78.29727       	78.79228       	79.708885      	80.92677       	81.233315      	80.43725       	79.74695       	78.53628       	92.3083        	92.42181       	90.495384      	92.33659       	92.63512       	92.806206      	92.943344      	88.420746      	92.644165      	92.83603       	93.0029        	93.13244       	91.7172        	92.70385       	92.874115      	93.07087       	93.2246        	93.31002       	82.049255      	92.84882       	93.04215       	93.18388       	93.26146       	80.49676       	92.84168       	93.01441       	93.13732       	93.138176      	85.74391       	92.931564      	93.06474       	93.12466       	89.860085      	92.809166      	92.96232       	92.80434       	87.38076       	92.663185      	92.748856      	92.23833       	90.29316       	92.7922        	92.921616      	90.99943       	92.630035      	92.78749       	92.94847       	92.51453       	92.461876      	92.78161       	92.91633       	93.00201       	88.400345      	92.66783       	92.82396       	92.93214       	92.22429       	92.4027        	92.54809       	92.64903       	92.742645      	86.82989       	92.555145      	92.72569       	92.873795      	92.278         	92.388535      	92.59395       	92.748375      	92.8533        	78.38629       	92.411545      	92.584595      	92.699844      	92.36171       	91.25108       	92.51218       	92.6697        	92.34726       	92.290215      	92.47641       	92.62274       	92.68129       	89.273834      	92.27543       	92.36691       	92.457054      	92.49911       	
79.96864       	80.48692       	81.023445      	78.68578       	78.96332       	81.89697       	78.75918       	81.73995       	80.09098       	80.24512       	77.8817        	77.022896      	92.44293       	92.32772       	85.732155      	92.405075      	92.54177       	85.16385       	92.56167       	92.75092       	92.93832       	93.080505      	92.12816       	92.25491       	92.78223       	92.98628       	93.13942       	93.26624       	87.396324      	92.82111       	93.01064       	93.1616        	93.29006       	89.122406      	92.94851       	93.12233       	93.21896       	93.00891       	87.07666       	92.949455      	93.10424       	93.17366       	81.755226      	92.76          	92.95519       	93.074295      	84.26486       	92.74436       	92.912315      	93.00869       	88.5688        	92.79942       	92.940384      	92.84019       	87.86777       	92.574844      	92.65899       	92.52568       	85.38796       	92.68882       	92.86356       	92.966774      	86.279396      	92.61989       	92.79518       	92.936134      	93.03683       	90.15302       	92.63245       	92.8039        	92.92103       	92.844635      	89.674934      	92.64062       	92.82277       	92.92516       	88.518234      	92.481125      	92.67289       	92.80854       	92.916664      	87.30558       	92.46869       	92.61588       	92.7688        	92.5181        	92.31559       	92.54427       	92.65884       	91.58658       	92.33342       	92.48713       	92.632706      	92.52044       	88.954094      	92.28397       	92.39751       	92.5025        	92.561226      	92.601234      	
79.07216       	81.52343       	80.44916       	80.58937       	77.37327       	80.26675       	78.49583       	80.86787       	79.71787       	81.93835       	79.41262       	79.5026        	80.16313       	82.05586       	92.494545      	89.70013       	92.44849       	92.657326      	92.82631       	92.981606      	90.22583       	92.62516       	92.80622       	92.97536       	93.12845       	93.08448       	85.9292        	92.89632       	93.054504      	93.191246      	93.28          	89.00454       	92.907974      	93.00722       	93.019066      	89.73924       	92.988815      	93.1353        	93.20298       	92.21505       	92.79628       	92.9736        	93.08371       	93.01876       	90.512955      	92.70735       	92.757904      	92.164215      	90.455635      	92.874535      	92.973854      	86.22651       	92.70686       	92.8685        	92.97269       	85.69284       	92.73268       	92.86967       	92.991455      	85.87185       	92.654915      	92.7901        	92.96023       	92.98647       	90.23125       	92.71099       	92.8305        	92.96028       	92.729195      	87.676895      	92.72456       	92.82862       	92.96833       	85.3175        	92.55502       	92.70164       	92.85618       	92.930725      	87.0776        	92.535385      	92.69512       	92.82317       	92.842735      	88.90277       	92.4572        	92.616646      	92.72282       	90.70238       	92.42596       	92.56533       	92.693726      	92.32289       	92.155365      	92.374115      	92.53111       	92.6365        	92.38654       	89.853874      	92.15325       	92.20694       	
80.149445      	80.003845      	78.839905      	78.31051       	82.72095       	78.48239       	78.912735      	78.214745      	81.743385      	85.96341       	91.61215       	74.64272       	77.08322       	92.467125      	70.49396       	92.499275      	92.6224        	86.506096      	92.59885       	92.79163       	92.95199       	93.111305      	80.30167       	92.66477       	92.88257       	93.04255       	93.17446       	93.20097       	85.59674       	92.9665        	93.12592       	93.24572       	92.67763       	86.68827       	92.971176      	92.98987       	92.8347        	88.305145      	92.99245       	93.11226       	93.18421       	88.92095       	92.8383        	92.970436      	93.07308       	76.513794      	92.75447       	92.89056       	92.90476       	89.371544      	92.88084       	92.9469        	89.40857       	92.61394       	92.76232       	92.81998       	89.15101       	92.61865       	92.78824       	92.908035      	92.87611       	89.89555       	92.705475      	92.84536       	92.95366       	92.68744       	90.8197        	92.75464       	92.8725        	93.02071       	87.521675      	92.70203       	92.84103       	92.97858       	90.053505      	92.55772       	92.72113       	92.85232       	92.84683       	90.43387       	92.56604       	92.71178       	92.84496       	92.648346      	86.89203       	92.44427       	92.59603       	92.70776       	92.40241       	92.27721       	92.45201       	92.58074       	92.6408        	88.79316       	92.28493       	92.42312       	92.51939       	92.56762       	92.60282       	92.66071       	
80.23735       	80.67202       	80.736824      	77.07862       	79.960396      	78.68956       	81.283134      	80.93258       	81.282326      	79.55541       	92.272804      	91.170784      	92.31817       	89.84353       	92.39201       	92.47522       	89.06048       	92.55843       	92.73209       	92.905266      	93.02223       	89.91381       	92.53885       	92.77293       	92.86458       	92.87046       	92.88122       	86.16135       	92.96502       	93.120705      	93.1937        	92.8135        	90.26101       	93.005196      	93.0692        	90.64721       	92.95334       	93.10623       	93.1936        	90.133865      	92.863914      	92.99885       	93.08405       	90.064186      	92.69012       	92.86495       	92.94657       	87.23261       	92.77533       	92.88588       	92.91641       	88.99037       	92.66404       	92.70358       	88.0687        	92.65458       	92.81951       	92.92884       	92.57184       	92.413         	92.73507       	92.85486       	92.98489       	90.281006      	92.593376      	92.782         	92.8918        	93.015724      	90.06005       	92.70567       	92.86959       	92.98428       	90.986496      	92.577545      	92.77008       	92.88285       	92.85876       	87.33475       	92.615486      	92.74953       	92.89281       	91.537674      	92.366936      	92.53232       	92.671684      	92.786095      	90.04619       	92.30258       	92.503296      	92.63159       	92.75507       	89.434105      	92.17854       	92.35863       	92.5005        	92.60967       	92.64335       	90.16861       	92.13956       	92.197136      	
77.43676       	78.743065      	81.61124       	79.71965       	79.593864      	79.43076       	81.376724      	78.986885      	79.09395       	78.83718       	92.423904      	77.105576      	92.46443       	89.92854       	92.4663        	92.58588       	86.0187        	92.60643       	92.780785      	92.971146      	93.09467       	89.778786      	92.69189       	92.903534      	93.0712        	93.1915        	93.187096      	90.56402       	92.99289       	93.12681       	93.24635       	92.26711       	92.93175       	93.13591       	93.240326      	92.4279        	92.82174       	93.075966      	93.156456      	92.705505      	90.61561       	92.97753       	93.09443       	92.46007       	92.68499       	92.85299       	92.94448       	88.77303       	92.700836      	92.84996       	92.85191       	85.76494       	92.61524       	92.68284       	92.66895       	87.51373       	92.716835      	92.85292       	92.97239       	91.94215       	92.131195      	92.71902       	92.83557       	92.95608       	89.16938       	92.58403       	92.74116       	92.877174      	92.90877       	88.20127       	92.76782       	92.910675      	93.0486        	86.04733       	92.59939       	92.780205      	92.91503       	92.91028       	90.2208        	92.626816      	92.77339       	92.873764      	91.834755      	92.28552       	92.47473       	92.62264       	92.71545       	91.129135      	92.2996        	92.476494      	92.63494       	92.731094      	89.070816      	92.19885       	92.40958       	92.52755       	92.63178       	92.70466       	92.761604      	92.790016      	
77.38504       	79.05223       	80.290695      	78.459885      	80.4993        	81.180336      	78.59453       	78.27125       	80.682724      	78.667206      	92.39667       	91.05844       	91.37728       	92.45169       	73.317444      	92.2966        	92.41692       	92.47974       	92.456184      	90.34245       	92.62061       	92.73478       	92.90791       	93.08576       	93.13785       	80.54676       	92.82255       	92.998566      	93.12567       	93.23719       	92.14122       	91.72605       	93.136444      	93.22523       	93.29897       	87.88462       	93.02418       	93.1484        	93.21107       	90.218544      	92.88109       	93.01076       	93.00543       	87.65198       	92.81329       	92.94173       	92.52844       	92.66189       	92.83755       	92.94086       	79.24833       	92.49217       	92.60148       	92.56139       	90.41699       	92.63517       	92.69577       	92.7057        	89.38669       	92.40469       	92.50754       	92.524796      	92.47712       	85.34084       	92.69685       	92.85426       	92.97264       	92.36506       	92.71998       	92.87222       	92.98456       	92.775826      	84.8105        	92.74235       	92.86932       	92.99589       	91.018234      	92.563446      	92.71851       	92.84799       	92.95779       	72.92612       	92.44989       	92.598335      	92.730995      	92.82229       	89.51987       	92.380585      	92.53657       	92.67446       	92.77261       	89.751945      	92.172325      	92.34747       	92.39217       	92.398766      	92.408264      	92.31152       	33.218094      	86.81727       	
76.15135       	80.198006      	81.71018       	79.93963       	80.873474      	78.960625      	80.78295       	79.4359        	78.29503       	80.814224      	85.597885      	92.35653       	56.308952      	92.540985      	89.75993       	92.53906       	92.53716       	88.86173       	92.66653       	92.80017       	92.8891        	92.91602       	89.2989        	92.74019       	92.92835       	93.09214       	93.1966        	93.13291       	87.408356      	92.90722       	92.98232       	92.98118       	93.00976       	85.17709       	93.04608       	93.15122       	93.24286       	88.08451       	92.85472       	92.90338       	92.85326       	74.170616      	92.78956       	92.879036      	92.9599        	90.16799       	92.7525        	92.873276      	92.882835      	85.62086       	92.59395       	92.51533       	92.337326      	90.07055       	92.524506      	92.76084       	92.63146       	89.69297       	92.477066      	92.71802       	92.865         	90.82778       	92.53402       	92.723564      	92.847084      	92.975235      	86.582855      	92.80043       	92.92091       	93.05028       	90.23033       	92.67187       	92.82191       	92.99158       	93.04264       	87.976105      	92.72344       	92.84983       	92.98204       	90.38792       	92.53917       	92.694595      	92.83103       	92.88525       	88.67437       	92.19766       	92.33943       	92.418816      	92.520615      	65.60541       	92.18911       	92.246         	92.451164      	92.476326      	92.32445       	88.18054       	92.00204       	92.13326       	92.21232       	92.23906       	
78.58268       	79.17541       	79.652115      	79.31648       	79.7313        	79.39949       	79.4078        	79.56367       	81.791534      	80.06765       	76.43936       	82.2108        	90.58614       	92.48806       	80.16783       	92.49886       	92.61194       	92.82607       	90.53057       	92.72802       	92.89518       	93.052315      	93.16338       	92.46447       	92.67985       	92.92104       	93.05399       	93.16191       	93.24871       	88.73038       	92.93618       	93.05829       	93.1495        	93.24948       	91.84386       	92.90551       	93.03786       	93.15327       	92.216156      	91.498245      	92.99603       	93.08231       	81.80706       	92.51255       	92.54888       	92.25484       	85.63109       	92.76815       	92.88415       	91.89379       	92.60927       	92.763176      	92.87431       	90.97021       	92.5924        	92.74469       	92.87896       	91.259926      	92.56311       	92.728035      	92.8753        	92.98082       	74.09598       	92.66568       	92.80867       	92.963295      	93.0517        	85.727684      	92.80828       	92.943115      	93.08432       	82.060005      	92.698845      	92.878876      	92.986626      	93.079926      	87.748314      	92.67629       	92.84124       	92.95459       	89.81983       	92.46552       	92.62159       	92.75007       	92.84853       	87.15834       	92.3794        	92.525894      	92.65781       	92.787056      	87.94624       	92.26221       	92.446304      	92.581604      	92.704926      	92.78292       	92.144875      	90.35195       	92.264854      	92.31516       	
80.352234      	77.50026       	79.730446      	79.01494       	81.03271       	79.11614       	80.34379       	78.06143       	79.46761       	86.27779       	91.01399       	92.3579        	92.50737       	85.31992       	92.43868       	92.344246      	86.22268       	92.69283       	92.87437       	93.027054      	71.0801        	92.67381       	92.88538       	93.02108       	93.12262       	93.22629       	89.90192       	92.85067       	93.01006       	93.07613       	93.20827       	92.794914      	90.529816      	93.0274        	93.12203       	93.03056       	78.76611       	86.90485       	92.298874      	92.79168       	92.724         	87.70224       	92.87248       	92.98574       	92.0089        	92.619156      	92.79791       	92.92671       	84.35314       	92.65321       	92.77118       	92.902916      	74.07839       	92.63255       	92.78481       	92.86434       	90.55839       	92.6521        	92.767784      	92.91942       	80.996544      	92.579765      	92.74205       	92.89803       	93.007515      	85.82642       	92.73174       	92.8963        	93.00557       	92.96138       	87.8014        	92.80631       	92.9411        	93.08235       	89.72433       	92.775116      	92.91073       	93.018135      	90.37525       	92.51862       	92.68004       	92.82067       	92.89007       	90.29859       	92.354996      	92.531784      	92.680664      	92.7992        	74.77315       	92.28404       	92.4357        	92.58282       	92.71935       	92.78782       	89.56075       	92.287125      	92.416245      	92.501465      	92.55847       	92.60996       	
86.9617        	79.22988       	80.22657       	77.716736      	77.51371       	74.68346       	80.242615      	79.53813       	81.78858       	78.38069       	78.496346      	92.30066       	92.29369       	88.94489       	92.65862       	91.35117       	92.539085      	92.75732       	92.88102       	88.39511       	92.69375       	92.86621       	93.01068       	93.09598       	76.30084       	92.74099       	92.89606       	93.0296        	93.12498       	93.17903       	90.60309       	93.018425      	93.12186       	93.21878       	73.01049       	78.422226      	79.36295       	85.79044       	91.61694       	93.00879       	92.914764      	88.65398       	92.73717       	92.65647       	84.825134      	92.51751       	92.60118       	91.16627       	92.54029       	92.701385      	92.82252       	86.47776       	92.67116       	92.81575       	92.31938       	90.52572       	92.701614      	92.84958       	92.4424        	87.68459       	92.65859       	92.79925       	92.9485        	92.358154      	92.59862       	92.7769        	92.91226       	93.061         	90.5936        	92.70339       	92.86443       	92.99779       	89.01853       	92.75441       	92.88192       	93.00897       	92.49515       	85.81952       	92.69783       	92.81431       	92.9486        	89.95584       	92.42886       	92.60011       	92.72789       	92.80711       	88.876076      	92.33619       	92.49603       	92.65335       	92.77294       	91.000404      	92.19829       	92.39455       	92.54322       	92.66314       	92.73146       	92.780495      	92.82998       	92.86754       	
79.84864       	92.2775        	74.25914       	92.27765       	83.61248       	76.267         	77.23683       	77.85577       	79.04098       	79.90653       	78.46625       	82.42437       	89.816574      	92.58183       	83.49689       	92.49871       	92.64506       	90.79572       	92.56488       	92.76047       	92.93224       	92.96934       	86.787125      	92.57094       	92.782234      	92.86853       	92.998505      	91.72977       	92.81253       	92.951         	93.05985       	93.17378       	83.20332       	92.956535      	93.066444      	93.069145      	78.25561       	89.66704       	92.75775       	92.812004      	90.313065      	92.64811       	92.67228       	87.35118       	92.59754       	92.735985      	92.682365      	89.05243       	92.51226       	92.505005      	89.163506      	92.60272       	92.71914       	71.0814        	92.580894      	92.750404      	92.77976       	87.663864      	92.58516       	92.75135       	92.8882        	92.82795       	92.18118       	92.658356      	92.825424      	92.96209       	92.94112       	90.47589       	92.756645      	92.88883       	93.03512       	83.18436       	92.681305      	92.84202       	92.98357       	72.37239       	92.67058       	92.816986      	92.94424       	89.141426      	92.506714      	92.66437       	92.79327       	92.643196      	86.18481       	92.42152       	92.55856       	92.69544       	92.79328       	86.02923       	92.29378       	92.46762       	92.63763       	92.74489       	92.80392       	89.28646       	92.25908       	92.34457       	92.41148       	92.46754       	
76.294624      	91.64774       	81.1149        	77.72278       	81.97319       	79.22339       	79.86791       	80.204605      	78.46766       	78.71659       	77.6237        	83.032555      	92.52396       	87.30584       	92.56321       	91.85496       	85.99951       	92.671165      	92.81114       	86.97177       	92.51782       	92.71597       	92.85615       	92.93646       	89.02475       	92.777725      	92.92765       	93.046036      	93.16035       	90.1654        	92.91449       	93.013084      	93.12313       	91.6083        	92.90409       	93.01979       	92.9633        	90.18551       	92.74267       	92.54465       	86.196396      	92.69755       	92.74145       	87.64732       	92.73483       	92.84343       	87.33738       	92.578835      	92.73182       	90.943214      	92.53725       	92.70025       	92.396454      	86.01239       	92.60906       	92.77876       	84.73021       	92.48513       	92.68329       	92.83225       	92.37447       	92.445854      	92.62505       	92.82205       	92.95045       	92.840645      	88.72236       	92.747925      	92.8845        	93.0123        	68.11504       	92.70157       	92.86994       	91.8531        	92.67206       	92.8365        	92.97978       	92.162674      	92.52697       	92.69059       	92.82134       	92.86349       	89.08716       	92.44912       	92.61073       	92.723915      	92.769775      	89.73396       	92.329506      	92.46163       	92.63327       	92.74381       	92.69169       	88.83339       	92.31141       	92.46986       	92.59102       	92.670074      	92.71847       	92.760345      	
