# www.neaspec.com
# Scan:	 	AFM
# Project:	 	20251007_PS
# Description:	 	
# Date:	 	10/07/2025 11:26:44
# Scanner Center Position (X, Y):	[µm]	49.99	50.01	 
# Rotation:	[°]	0	 	 
# Scan Area (X, Y, Z):	[µm]	5.000	5.000	0.000
# Pixel Area (X, Y, Z):	[px]	100	100	1
# Averaging:	 	1	 	 
# Integration time:	[ms]	5	 	 
# Laser Source:	 	4.5-15 µm nano-FTIR laser
# Detector:	 	R
# Target Wavelength:	[µm]	7.502	 	 
# Demodulation Mode:	 	Fourier
# Tip Frequency:	[Hz]	241,340.500	 	 
# Tip Amplitude:	[mV]	45.700	 	 
# Tapping Amplitude:	[nm]	83.227	 	 
# Modulation Frequency:	[Hz]	0.000	 	 
# Modulation Amplitude:	[mV]	0.000	 	 
# Modulation Offset:	[mV]	0.000	 	 
# Setpoint:	[%]	79.75	 	 
# Regulator (P, I, D):	 	4.206850	8.625812	1.000000
# Tip Potential:	[mV]	0.000	 	 
# M1A Scaling:	[nm/V]	0.426	 	 
# M1A Cantilever Factor:	 	1,000	 	 
# Q-Factor:	 	487.4	 	 
# Version:	 	2.1.11536.0
92.59638       	93.78093       	90.5785        	92.473595      	92.01153       	90.40617       	93.0727        	92.04936       	91.382866      	92.74991       	92.36703       	93.21314       	94.53402       	92.34158       	93.727165      	93.41707       	93.66223       	94.22382       	94.19945       	93.61742       	94.51738       	94.24547       	93.51579       	93.24832       	92.642006      	92.47659       	93.75362       	92.82364       	91.21086       	93.97066       	93.369156      	93.37315       	92.85228       	91.53573       	93.84484       	93.56946       	92.868546      	92.419174      	90.463585      	94.5486        	92.12743       	92.08625       	92.86878       	94.06609       	94.91264       	93.399086      	92.45241       	92.36514       	93.55162       	94.129684      	93.82104       	93.75047       	93.26221       	93.79025       	94.68132       	92.970535      	92.671074      	93.84798       	92.85992       	91.97461       	93.64185       	92.9595        	92.757454      	93.91316       	93.145584      	94.20611       	93.74504       	94.90059       	93.598145      	93.89532       	94.843376      	93.63941       	94.13498       	94.397064      	93.99609       	94.601166      	93.60057       	94.659744      	93.95077       	93.63805       	93.894165      	93.68209       	95.19793       	94.830536      	95.017         	96.17871       	94.93505       	95.70031       	94.812386      	95.339355      	94.854034      	93.423256      	94.20719       	93.63156       	94.094086      	93.84305       	93.597984      	94.75969       	94.82975       	95.01069       	
93.12499       	92.36378       	93.568306      	91.969086      	92.97377       	93.193436      	91.95037       	92.4201        	92.970795      	91.75333       	93.14355       	93.74461       	93.47102       	93.3495        	94.377365      	93.46146       	94.16293       	94.077835      	94.13515       	94.43224       	93.94125       	94.1252        	93.442154      	93.8235        	94.624504      	93.64359       	94.95373       	94.90365       	93.87419       	94.09553       	93.97773       	93.97184       	94.26109       	93.440186      	92.15593       	95.17326       	94.78702       	93.5226        	93.15456       	93.17127       	94.30134       	95.190414      	93.98937       	93.028946      	92.82952       	95.09869       	94.13585       	93.25704       	94.10263       	93.99512       	94.84155       	93.25212       	94.1613        	94.26865       	93.545975      	93.6226        	94.333725      	93.6658        	93.4753        	94.0527        	94.49413       	93.17313       	93.729485      	93.765205      	94.009674      	93.70781       	94.079254      	94.08636       	93.54862       	94.42754       	94.634186      	93.93909       	95.318596      	95.25308       	94.400475      	94.75945       	94.167404      	94.96425       	93.43694       	93.24593       	94.71073       	93.86773       	95.8864        	95.00017       	95.840485      	95.84179       	93.64505       	93.11864       	94.155846      	94.20828       	93.94854       	95.125725      	94.89676       	93.247795      	94.96138       	94.523605      	93.959724      	94.213875      	94.55729       	95.10604       	
90.96817       	92.352325      	91.98628       	93.352455      	90.813515      	92.167984      	93.051025      	91.1549        	91.33874       	92.852455      	90.88752       	92.7505        	93.53537       	93.23219       	93.185715      	94.12244       	93.19414       	93.4369        	93.76058       	93.28413       	94.06588       	93.64147       	94.084435      	94.26525       	93.91889       	93.50285       	94.266464      	94.38916       	93.52841       	93.62959       	94.07332       	93.549736      	95.59283       	94.25807       	91.92892       	92.05582       	92.547         	92.07393       	92.87515       	91.45694       	90.74454       	92.87483       	94.16479       	92.74861       	91.0373        	92.8185        	91.909195      	93.57248       	93.40653       	93.613594      	94.51409       	92.34083       	93.90553       	94.602776      	93.21547       	94.31726       	93.299         	93.65645       	94.08221       	93.07543       	92.59953       	94.04093       	92.91202       	92.811455      	92.798294      	93.59404       	94.07909       	92.51629       	94.9456        	92.81935       	93.40088       	95.0149        	93.52806       	93.05553       	94.979546      	93.16115       	93.21424       	94.25872       	93.056366      	94.03226       	94.15707       	93.88477       	94.74844       	94.89078       	95.11675       	95.23799       	94.25065       	93.15596       	95.52593       	93.32567       	92.53158       	93.4861        	93.5031        	93.98479       	93.440865      	94.14228       	94.14702       	93.42801       	93.990685      	94.453094      	
92.17612       	92.8693        	92.46          	91.70045       	92.87109       	92.57559       	90.4743        	91.05401       	92.57439       	91.318375      	90.99536       	92.73054       	92.24638       	91.90203       	91.64791       	91.87838       	93.47294       	93.96545       	93.67386       	93.67784       	93.26817       	93.07323       	92.69231       	94.70322       	94.43403       	93.97478       	94.38654       	93.37317       	93.05814       	94.38936       	92.5481        	94.09929       	93.293076      	91.36392       	91.21037       	93.643745      	92.93033       	93.94954       	93.17624       	90.28873       	93.86553       	92.59538       	94.24374       	94.69524       	91.77166       	95.69413       	93.42076       	92.707016      	94.2981        	93.293465      	95.76662       	94.77251       	93.71484       	94.46204       	94.00366       	94.610344      	94.04591       	93.69284       	94.21859       	93.33326       	94.03531       	94.27434       	92.97774       	94.39024       	95.0951        	93.2321        	93.225945      	93.82117       	93.1116        	94.41951       	93.53256       	93.340546      	94.52315       	93.96953       	93.13514       	94.23023       	94.28069       	93.61557       	94.13525       	93.94479       	93.24227       	92.56678       	94.44017       	93.101105      	93.98183       	94.203995      	92.87515       	94.35779       	93.37254       	94.68546       	93.43664       	92.54378       	93.75721       	92.86792       	95.13425       	93.22807       	92.691574      	94.44335       	94.89868       	94.31737       	
90.75349       	93.356705      	91.45194       	92.655876      	93.587776      	92.316444      	92.95337       	92.51586       	91.51437       	93.103836      	92.8107        	90.80693       	93.09462       	93.33866       	90.95414       	94.13545       	94.58207       	92.66743       	95.6961        	93.89574       	94.22065       	94.421684      	92.90429       	94.89385       	92.90126       	93.88962       	94.613525      	93.959305      	94.00827       	92.96445       	92.87484       	93.39843       	93.41879       	94.88854       	93.66005       	91.478195      	94.93556       	92.989204      	92.89366       	92.893745      	93.543304      	94.02135       	93.90079       	93.309525      	93.95279       	94.02043       	93.11205       	94.321724      	94.14258       	93.88349       	94.010666      	93.82445       	92.93919       	95.28694       	93.79701       	92.63991       	94.892365      	93.89446       	93.252         	94.13691       	94.15563       	93.40922       	93.32484       	94.61304       	93.801315      	93.60331       	94.11092       	94.33562       	93.6193        	93.67179       	95.38677       	94.30905       	93.54572       	95.354805      	94.62648       	93.77904       	94.964516      	96.03653       	93.23011       	94.25066       	95.98516       	93.50581       	92.7199        	96.09307       	93.40907       	94.34236       	93.57872       	92.88526       	95.63838       	92.21362       	93.2978        	93.826004      	93.45707       	95.27116       	94.74224       	93.18529       	94.5122        	94.94796       	94.25074       	92.75033       	
91.90665       	91.71094       	92.48123       	92.285065      	92.179924      	93.18188       	92.63281       	91.178925      	93.638336      	92.76778       	90.92935       	92.74018       	93.22819       	91.65919       	92.34016       	94.19028       	92.454056      	92.649185      	93.530365      	92.69693       	92.80203       	92.81426       	92.93719       	93.52795       	92.837555      	93.87713       	94.22277       	93.12545       	95.23555       	93.73874       	92.88411       	95.16024       	92.96053       	95.25151       	94.70133       	91.74615       	93.004234      	92.06147       	92.8925        	94.99487       	93.353874      	94.86799       	94.31112       	91.9288        	94.00936       	92.712494      	92.206055      	93.89376       	93.309         	93.66931       	93.59046       	92.98146       	93.736404      	93.76494       	93.07459       	93.160675      	94.63093       	93.03661       	92.66204       	93.62015       	94.045235      	93.45098       	93.600624      	94.89669       	93.50325       	92.938225      	95.256226      	94.467         	93.777824      	93.94305       	94.12939       	92.90126       	93.48802       	94.17349       	92.58574       	93.29895       	94.30073       	93.584076      	93.57951       	95.01432       	94.837456      	93.54636       	94.375656      	94.75243       	93.1521        	94.91996       	94.38884       	93.51876       	93.95966       	92.818695      	93.730255      	93.96817       	92.47091       	94.008095      	93.7677        	92.41094       	93.741         	94.08603       	93.42737       	92.61296       	
90.45077       	93.270584      	91.72946       	91.145645      	93.14673       	92.74616       	91.32287       	92.68083       	93.009384      	91.51608       	92.34389       	92.920746      	92.14516       	92.378365      	92.6613        	92.81909       	93.798294      	92.56458       	92.54412       	94.42606       	93.22949       	91.756905      	94.5008        	93.80371       	91.744514      	94.79764       	94.877426      	93.93929       	94.96664       	93.54054       	93.34867       	92.99427       	94.527016      	93.943146      	91.25748       	93.24155       	92.165215      	93.848434      	95.005486      	95.079056      	96.872444      	92.374626      	91.15329       	93.79927       	90.96721       	93.98896       	91.26885       	96.67889       	95.25075       	95.54829       	94.884834      	91.83977       	96.29762       	93.60022       	92.557304      	95.23265       	93.4296        	92.22613       	94.89324       	94.08088       	92.37619       	95.369064      	93.636116      	92.08782       	93.345795      	93.873566      	92.75337       	92.708336      	93.20367       	94.09294       	93.28556       	93.171455      	94.592964      	94.56358       	92.96106       	94.70403       	95.24102       	92.44435       	94.33147       	94.80788       	92.97923       	95.81034       	95.293526      	92.691414      	95.33599       	92.53285       	92.885414      	93.680664      	92.82863       	93.748375      	92.7379        	92.52455       	93.69948       	94.33607       	93.438095      	93.459724      	94.75932       	94.00256       	92.87654       	92.51952       	
92.0713        	92.978         	90.66271       	94.24544       	93.63044       	91.38339       	93.44768       	94.02047       	90.96514       	93.22104       	93.3628        	91.41159       	93.19859       	94.090775      	92.57907       	93.26407       	93.36194       	92.44662       	93.578476      	92.60137       	92.475464      	93.990486      	92.49269       	92.11647       	94.758865      	91.94833       	93.14599       	95.49569       	93.416176      	94.62106       	93.591156      	93.40898       	93.97389       	94.216064      	94.3509        	93.99837       	92.83904       	92.882965      	92.66469       	93.80934       	93.210464      	94.930214      	93.19169       	92.48014       	94.6201        	93.04461       	95.135376      	94.03089       	92.74836       	94.07453       	95.04436       	93.34167       	95.698006      	93.51775       	93.52299       	95.367096      	93.7852        	94.91957       	94.22777       	94.1385        	94.89222       	94.483795      	92.98804       	94.7885        	95.04316       	92.46561       	95.973465      	92.99842       	92.591415      	96.3081        	92.873375      	93.966446      	95.15533       	93.165054      	93.60254       	95.70887       	93.42053       	93.896866      	95.112144      	93.77332       	95.11492       	95.49739       	93.92791       	94.5972        	95.36797       	93.07867       	95.770096      	92.9502        	92.51172       	91.416855      	90.943146      	95.4198        	91.670746      	92.576744      	92.70827       	91.380875      	95.9821        	97.31054       	96.17795       	94.41486       	
89.62715       	94.81335       	90.05598       	92.78368       	95.702934      	90.66964       	92.11628       	95.34614       	92.00526       	91.662735      	94.5847        	92.600815      	90.49646       	94.34383       	93.352875      	91.51046       	94.06585       	94.313805      	91.373695      	93.00082       	93.992874      	91.28333       	92.1978        	94.082695      	91.46136       	93.08601       	93.383354      	92.58674       	93.28638       	93.02044       	93.68438       	93.39416       	92.666504      	92.787636      	92.42643       	93.10706       	93.591385      	92.66753       	94.49255       	93.61657       	91.38152       	95.06273       	91.83875       	95.40002       	93.64528       	92.93889       	95.822914      	93.50244       	92.72625       	94.79325       	92.5813        	95.18856       	92.99434       	92.42513       	94.0835        	92.677864      	92.74666       	93.62363       	94.09437       	92.73445       	94.242325      	93.65721       	91.79476       	94.7794        	94.50661       	91.32751       	94.56379       	95.537605      	92.59181       	93.70268       	95.30822       	93.46477       	92.41877       	95.28373       	94.142715      	93.52076       	95.71733       	94.50479       	93.08369       	95.018486      	94.479385      	93.812935      	95.40694       	94.88501       	94.53078       	94.389786      	94.1284        	93.88977       	94.17818       	92.47209       	94.62723       	93.39035       	91.20326       	94.10599       	93.701584      	90.841965      	91.3697        	93.3223        	94.37639       	93.67296       	
94.31218       	90.74894       	95.015144      	93.4473        	90.64991       	93.73135       	94.26076       	90.5228        	92.72266       	94.739296      	90.6966        	91.17005       	94.67465       	91.160515      	91.31346       	94.52925       	91.60762       	90.95748       	94.87976       	92.46141       	91.58806       	93.725204      	93.727745      	91.4731        	93.01428       	93.488         	92.17713       	93.56816       	93.8978        	92.398026      	92.721634      	94.66361       	94.02923       	94.80493       	94.48575       	91.868904      	91.2057        	92.53051       	90.55368       	93.437614      	90.71188       	94.37851       	94.311775      	91.3488        	94.27098       	94.7734        	91.80032       	95.31043       	94.81043       	91.7061        	94.68078       	91.95979       	93.28959       	95.72144       	92.06291       	94.65347       	94.50821       	91.942764      	93.26006       	94.51796       	92.91797       	93.897446      	94.38531       	93.05925       	94.18948       	93.84813       	93.86642       	93.09721       	93.320305      	94.63032       	93.54159       	92.966385      	96.05232       	92.94884       	92.109665      	96.44207       	93.851234      	91.26287       	96.33422       	95.10475       	91.87511       	96.578606      	95.35584       	91.958145      	95.035065      	96.349014      	90.70776       	94.12526       	94.90048       	90.979126      	93.182365      	95.44929       	92.03951       	94.51639       	95.47493       	92.62786       	91.06892       	92.51648       	93.47305       	94.41513       	
91.7096        	92.684944      	92.18242       	91.88081       	92.90548       	92.97173       	92.52978       	92.61286       	93.503876      	92.047295      	91.07618       	92.471664      	92.506836      	91.22871       	92.489006      	93.8174        	92.04774       	92.42167       	94.38634       	92.94659       	91.892586      	94.8143        	93.595055      	93.06896       	94.47508       	92.55436       	92.74875       	94.10441       	92.552414      	92.89823       	92.985634      	92.3348        	93.65698       	93.52161       	93.43338       	93.514725      	93.50345       	93.81657       	93.33586       	93.90209       	93.14806       	95.12596       	94.11868       	92.65247       	95.62728       	94.55127       	92.210785      	95.87402       	95.783394      	92.91378       	94.06217       	93.21862       	91.916214      	95.16995       	91.27742       	93.35767       	95.00293       	92.50176       	95.41675       	94.402336      	94.05077       	96.08618       	93.38813       	95.674515      	93.34624       	94.49346       	96.128494      	94.637054      	94.05623       	96.053215      	96.06026       	93.87638       	95.122475      	95.916214      	93.691315      	93.73507       	95.79701       	94.22571       	92.60571       	95.94488       	95.27088       	93.03035       	95.514404      	95.19821       	92.94979       	94.53313       	95.32256       	93.02347       	94.05305       	94.82386       	93.3142        	93.326454      	94.25148       	93.371635      	93.402954      	93.69043       	93.33927       	93.21658       	93.67228       	93.6647        	
93.48299       	91.71273       	91.64917       	94.006226      	92.733154      	91.45314       	94.13439       	93.114365      	91.61346       	92.93998       	93.15356       	91.69613       	92.479164      	93.24654       	91.58094       	92.41849       	93.17969       	92.28418       	92.48406       	91.77935       	92.06158       	91.68898       	91.51863       	93.96672       	92.494095      	93.10855       	93.023384      	93.492485      	92.959366      	93.74147       	93.46962       	94.6429        	93.62257       	92.69965       	93.51315       	93.41914       	93.34633       	93.564255      	93.985565      	93.03426       	94.02817       	92.28925       	93.16839       	94.830376      	93.436615      	93.5767        	94.650925      	93.43161       	94.09931       	94.591064      	92.92838       	93.86515       	93.618286      	92.49486       	93.6086        	94.209946      	93.461075      	95.29654       	94.30296       	92.311165      	93.572525      	93.0778        	92.76155       	94.60876       	92.44321       	93.76629       	93.12032       	92.76594       	95.64498       	93.34657       	92.999435      	94.7889        	93.594734      	93.16053       	94.96467       	94.09714       	92.963936      	94.53926       	93.300735      	94.37272       	94.25609       	93.57211       	94.48815       	94.475334      	92.82349       	94.78604       	94.98294       	92.1931        	95.47559       	94.434975      	92.17472       	95.84738       	91.85257       	93.07426       	95.40425       	92.04591       	91.29711       	93.19339       	94.678635      	95.16666       	
91.36589       	94.36939       	93.46718       	90.292206      	93.00304       	93.59362       	90.84069       	93.02843       	94.147415      	91.50296       	92.70451       	94.355675      	92.57525       	92.74525       	94.05827       	92.42233       	91.84047       	93.41515       	92.98681       	92.84445       	92.200836      	93.37314       	92.90079       	92.60988       	92.907074      	93.36804       	91.91999       	92.51266       	94.768906      	92.335205      	93.92493       	95.331406      	92.99406       	94.86364       	92.10339       	93.23432       	94.94767       	92.72194       	94.800735      	93.34382       	94.10148       	94.45128       	95.49932       	93.85806       	95.25028       	94.77042       	94.07833       	95.49479       	95.23154       	94.025375      	95.73216       	94.77719       	92.86568       	94.07991       	94.064804      	93.65434       	95.03382       	93.93253       	94.51335       	94.77998       	93.78659       	94.30676       	93.83          	93.44235       	93.77133       	94.37892       	93.79464       	93.96689       	94.98105       	93.83329       	95.615326      	93.16795       	92.45387       	95.42299       	93.840805      	92.9242        	95.9874        	94.655556      	93.55478       	95.61671       	95.24494       	93.11954       	95.0867        	94.50373       	93.360214      	94.17761       	94.84787       	93.76033       	93.48846       	94.92964       	93.4252        	92.47519       	93.45369       	93.803474      	92.54321       	92.76908       	93.28421       	93.236534      	92.61503       	91.93023       	
92.83037       	90.110306      	92.856285      	91.59045       	90.673996      	93.05634       	92.28685       	90.579865      	91.86695       	92.065155      	91.035934      	91.45805       	92.41576       	91.148895      	90.856804      	91.92753       	92.19491       	91.26503       	91.61488       	92.35856       	92.32146       	92.11879       	92.759926      	93.35715       	92.21125       	92.15732       	93.9943        	92.26845       	92.21582       	95.47237       	90.70304       	93.33727       	95.22723       	90.98616       	94.57834       	91.469986      	91.2745        	95.90576       	92.41996       	92.05322       	96.79902       	94.07443       	91.4766        	95.89766       	95.36473       	93.56754       	96.10502       	91.073074      	95.97298       	93.335815      	92.07625       	94.645905      	91.79863       	94.02514       	92.60346       	94.19107       	94.51226       	92.594345      	94.273994      	92.61242       	94.25192       	92.03392       	93.65347       	94.641205      	92.74629       	95.21009       	93.11218       	93.967316      	95.29072       	92.10351       	96.767105      	92.57044       	92.51836       	96.53141       	93.98786       	92.15568       	96.38171       	93.78938       	92.493805      	95.92086       	93.66541       	93.5097        	96.30655       	92.484024      	93.727         	96.14762       	93.36921       	92.01327       	96.20415       	94.24643       	91.7179        	95.51692       	93.469604      	91.42638       	94.37919       	94.747246      	92.55936       	91.555534      	91.52534       	92.17965       	
93.92791       	90.08005       	93.45802       	93.31481       	90.62386       	92.1556        	93.32236       	90.90431       	91.089035      	93.25272       	91.42516       	91.57085       	92.87202       	91.82093       	90.84396       	92.87382       	92.45535       	91.474846      	91.93288       	90.75231       	91.59299       	91.55018       	91.41837       	91.15803       	92.38957       	92.129654      	91.46313       	93.212036      	91.14162       	93.42374       	93.78273       	91.697266      	94.24511       	93.89072       	92.14021       	94.474625      	93.33761       	93.89145       	93.98662       	93.577095      	93.60672       	94.31392       	93.763885      	93.67427       	94.725464      	92.74553       	93.08605       	94.91436       	94.11197       	94.67176       	94.95907       	93.17886       	94.95668       	94.386925      	93.522736      	94.84256       	93.49134       	93.41517       	94.05742       	92.5383        	93.881454      	94.4456        	93.40102       	94.621         	92.9913        	93.03426       	94.02445       	93.63742       	94.1462        	94.06049       	94.48017       	93.88791       	94.24484       	95.429565      	94.198944      	94.48182       	95.90648       	95.39035       	93.35943       	95.42756       	95.323044      	92.49582       	95.112236      	95.18208       	93.27809       	94.720215      	95.528145      	93.50705       	94.57942       	93.35959       	94.762505      	94.56717       	93.902016      	95.01862       	93.77294       	92.82167       	94.35668       	94.83945       	94.13921       	92.78315       	
90.36401       	92.27945       	90.36064       	91.229095      	92.99483       	91.177216      	90.7858        	92.87414       	91.589195      	89.62367       	92.87481       	92.152145      	89.97819       	92.252144      	92.41353       	89.91439       	91.03899       	92.600945      	90.64775       	91.50137       	92.79508       	91.2903        	91.248276      	93.0078        	91.16002       	92.00793       	93.13036       	91.89881       	92.22054       	93.330246      	91.0715        	94.686356      	93.9369        	91.943474      	94.77129       	92.00651       	92.97136       	95.028244      	93.43861       	94.85971       	94.35347       	93.944244      	95.35938       	94.76221       	93.726654      	94.45614       	94.200615      	93.934135      	93.853134      	94.38985       	94.31877       	94.72445       	94.52614       	94.0229        	94.576614      	94.017         	94.98653       	95.34712       	94.13841       	95.20137       	94.62007       	94.58874       	95.25538       	93.20121       	94.25282       	94.58857       	93.87553       	94.57844       	94.32486       	93.434746      	94.28735       	94.77852       	94.252884      	93.68271       	94.40975       	95.05573       	93.513374      	94.29631       	95.15933       	93.043205      	93.73287       	96.09315       	92.98988       	94.20031       	95.71302       	93.1495        	95.30854       	91.825676      	95.00126       	94.02991       	93.33423       	94.79804       	93.10722       	92.25727       	93.64376       	93.63773       	92.87932       	92.832466      	92.70251       	92.9237        	
93.37735       	92.475105      	91.27219       	95.755005      	93.25923       	90.845634      	94.48554       	94.08167       	90.61706       	93.5407        	95.008354      	90.52593       	93.58888       	95.34871       	90.869316      	93.33829       	95.086266      	91.71997       	93.25272       	94.68289       	91.895645      	92.54493       	93.97784       	91.932         	92.52214       	93.79386       	91.58841       	93.04068       	94.02898       	91.89543       	93.197556      	94.421616      	92.15369       	92.85406       	95.0468        	91.80285       	93.842445      	95.53699       	92.83498       	95.06387       	94.31812       	93.723625      	94.79268       	94.213326      	94.63733       	94.68742       	93.7314        	94.50476       	95.145134      	93.2258        	95.36754       	94.12822       	93.39542       	94.74599       	93.92297       	93.042145      	95.2719        	92.971436      	93.56681       	94.54566       	93.496895      	94.83145       	94.60863       	93.86244       	95.06034       	93.653114      	93.78313       	94.47298       	93.509895      	94.839836      	93.102455      	93.83016       	94.47685       	93.44011       	94.828575      	94.26484       	95.136154      	94.99925       	94.97652       	94.78781       	93.606155      	94.920845      	93.628265      	92.602         	94.80397       	94.104126      	93.287056      	94.398834      	92.75621       	94.49761       	92.93171       	93.3322        	94.03138       	92.642365      	92.87526       	93.187454      	92.2841        	91.70234       	92.11894       	92.11097       	
93.17058       	91.26087       	92.959305      	94.11523       	92.11054       	92.089066      	93.518425      	92.504         	92.03488       	93.35408       	91.99985       	91.26123       	92.397575      	92.86453       	91.35027       	92.98547       	93.11392       	91.47791       	91.90015       	93.35965       	92.61187       	91.98104       	92.82987       	92.50392       	92.63599       	92.63872       	92.751884      	92.94771       	92.65751       	91.7141        	93.67207       	93.0488        	91.262566      	93.60542       	93.53463       	91.198715      	94.0002        	92.32045       	92.12324       	94.091835      	92.15904       	93.45997       	93.45412       	92.76111       	94.10987       	93.693985      	93.05033       	94.56864       	93.35298       	93.26854       	94.04179       	93.62763       	93.38592       	94.13486       	94.168686      	93.31697       	94.56281       	94.98414       	94.92925       	95.42473       	93.91463       	96.465164      	95.133385      	92.11872       	96.547195      	94.07101       	95.57774       	94.22335       	93.37646       	95.150116      	93.001114      	95.44604       	94.2905        	93.63571       	95.242905      	93.538155      	94.57593       	94.12488       	94.32332       	94.51348       	93.9729        	94.9183        	93.22469       	94.044         	95.24794       	93.063126      	94.64441       	94.433525      	93.63411       	95.19345       	92.18783       	95.24304       	93.71849       	91.718544      	94.21767       	94.87344       	93.1906        	92.88734       	92.88293       	93.234146      	
92.91139       	90.965805      	91.19359       	92.885826      	90.90922       	91.28044       	92.291954      	92.02757       	91.78789       	92.43726       	92.083954      	91.05513       	91.97658       	92.92974       	92.03211       	92.65419       	91.73983       	92.97023       	93.1952        	91.572075      	91.826775      	92.822136      	90.35849       	93.12569       	91.81494       	90.82012       	94.80009       	90.01022       	93.02309       	94.00053       	90.89563       	93.01584       	93.748825      	91.67919       	93.767105      	92.15028       	92.22497       	94.82751       	93.15979       	94.9862        	93.56522       	93.281456      	94.13338       	92.486725      	94.371284      	94.158         	94.933716      	95.09478       	91.085335      	93.226395      	91.188515      	92.119095      	96.82946       	92.072464      	95.64593       	96.7133        	90.66757       	96.83997       	92.43803       	91.17813       	94.5764        	91.34455       	94.42497       	91.327156      	93.044         	92.581436      	94.934166      	95.26002       	92.13407       	95.37674       	94.09288       	93.11083       	96.12402       	92.246216      	94.70816       	95.30484       	91.694855      	97.014565      	95.65526       	91.15707       	96.71722       	91.631424      	91.14589       	95.232346      	90.496086      	94.707855      	91.56859       	93.041145      	95.79623       	92.20402       	95.440155      	93.03658       	91.78907       	94.447266      	93.72305       	92.465576      	93.76709       	94.480354      	93.969765      	93.26354       	
91.561966      	92.936485      	92.3084        	91.79309       	92.091446      	92.52662       	91.64157       	92.579704      	92.78385       	91.92533       	92.02573       	92.40866       	91.79248       	90.30734       	92.66147       	92.80696       	90.821846      	92.48664       	92.89685       	90.66414       	93.10104       	93.00723       	91.19538       	93.057205      	92.91029       	91.623695      	93.65453       	92.57735       	92.14403       	92.73328       	92.82415       	92.32077       	92.462166      	93.79066       	93.992096      	92.89591       	94.86707       	94.55321       	94.31532       	95.13855       	93.066216      	94.7253        	94.3632        	92.9526        	94.238365      	92.89449       	92.89802       	94.63224       	92.99737       	94.912346      	95.868004      	92.99044       	95.15438       	94.7977        	94.29638       	96.03832       	93.78532       	95.04081       	94.54285       	94.78615       	94.753716      	94.80341       	94.872955      	93.36159       	94.59172       	93.216606      	93.887505      	94.243576      	93.145615      	93.46429       	94.04391       	94.52818       	94.01518       	93.8305        	94.7762        	93.96406       	94.87908       	95.4132        	93.459305      	95.09412       	93.566216      	92.971924      	95.236275      	92.88054       	93.71472       	93.69146       	93.47407       	95.06002       	93.19258       	93.946335      	93.92069       	93.87655       	94.2515        	94.1247        	94.5671        	94.09071       	93.42357       	93.44372       	93.95513       	94.22951       	
91.73976       	91.62223       	92.011925      	92.40471       	91.11939       	92.94711       	91.307205      	91.80396       	93.17024       	90.806435      	91.7744        	92.42306       	91.468094      	90.94422       	93.180336      	92.205475      	91.41119       	92.39821       	92.327385      	91.70875       	91.76392       	92.70768       	91.62443       	91.897064      	92.99336       	91.89814       	91.52229       	92.63469       	92.172646      	91.61683       	91.72118       	92.76441       	92.07523       	92.07739       	93.85026       	93.61663       	92.63704       	93.18259       	93.22423       	92.95666       	93.5975        	92.48494       	91.88624       	93.59001       	92.176544      	93.72811       	94.84673       	92.68774       	93.951706      	93.20753       	93.51386       	93.727615      	93.60506       	94.29265       	94.33853       	93.70434       	93.50858       	93.89775       	93.14381       	93.55893       	92.9012        	92.3305        	93.41419       	92.50844       	92.03784       	93.24536       	93.49723       	92.07209       	94.371124      	94.1497        	92.945885      	93.56049       	94.18701       	92.52856       	94.3416        	95.42494       	92.26464       	95.51952       	95.03942       	94.29529       	94.2017        	93.020004      	92.8591        	93.055374      	93.81044       	93.63803       	93.82959       	94.271576      	92.1379        	94.5951        	92.67602       	91.33256       	93.96056       	91.64354       	93.47197       	93.0467        	91.796234      	92.27083       	93.044205      	93.28228       	
94.79402       	91.52888       	94.07884       	93.73099       	91.377396      	94.28209       	93.57723       	91.680176      	92.81408       	93.576904      	92.44404       	92.82948       	93.23564       	92.670586      	93.94797       	93.37204       	92.427246      	93.58536       	93.17502       	92.243         	92.86321       	93.883064      	92.250885      	91.555145      	93.80876       	92.25432       	91.31904       	93.704865      	92.714516      	92.3096        	93.13396       	93.23295       	92.84152       	93.25092       	92.83908       	92.68983       	92.847115      	93.44507       	94.32597       	93.87382       	93.665276      	94.59528       	93.14763       	94.19336       	94.197395      	92.76083       	94.633705      	94.12712       	93.18811       	94.68743       	94.14497       	94.24499       	94.578995      	94.56414       	94.95147       	95.02006       	95.25785       	94.98429       	95.15617       	93.981674      	95.62426       	94.92597       	93.85467       	94.897514      	95.63862       	93.3613        	94.78092       	94.97493       	93.35799       	95.05881       	95.52569       	93.875854      	95.04382       	95.39119       	94.247765      	94.56889       	94.851105      	94.64733       	94.3942        	94.36024       	95.017876      	92.77199       	95.14889       	93.85936       	93.45248       	95.1388        	93.46679       	94.256874      	94.71309       	93.82255       	94.51486       	93.768845      	93.197495      	94.80375       	92.60446       	93.499825      	94.29743       	93.57882       	92.858795      	92.909065      	
93.13997       	92.114975      	93.4825        	91.914764      	91.392975      	93.130486      	92.3659        	93.191086      	92.95946       	92.37077       	92.88729       	91.94087       	92.120476      	93.403564      	92.259285      	91.844536      	94.238075      	92.521324      	91.51617       	94.37712       	93.51371       	91.90042       	94.11408       	94.69174       	92.016045      	93.35228       	94.46166       	92.60221       	94.60851       	94.35967       	93.414185      	94.431206      	94.41596       	93.56194       	94.01416       	93.74297       	93.92847       	94.30855       	93.420654      	93.635086      	94.16965       	92.68989       	94.39705       	93.530426      	92.56783       	94.021355      	93.6952        	92.66854       	93.89853       	93.60036       	94.42915       	94.06946       	94.634026      	93.70506       	92.88644       	94.20016       	94.25492       	93.88253       	93.72877       	93.58636       	93.96302       	93.5736        	94.5316        	94.249016      	93.436806      	94.48579       	94.918655      	93.48702       	94.51033       	95.38546       	93.20415       	95.091324      	95.874214      	93.72616       	95.97904       	95.828545      	93.7881        	95.13763       	94.94031       	92.4805        	93.39149       	93.14821       	93.35243       	94.44719       	94.431885      	93.72403       	94.11723       	93.89562       	94.158325      	93.63053       	93.31644       	92.66784       	93.15599       	93.41462       	92.53979       	94.297356      	93.88623       	92.778046      	92.54951       	92.562546      	
93.226326      	94.07451       	93.58121       	92.393326      	93.71844       	92.052284      	92.0851        	93.64178       	92.56475       	93.35158       	93.50004       	92.639366      	92.46339       	92.95011       	93.50032       	92.71216       	93.275116      	94.08591       	92.74364       	93.07317       	93.591995      	93.57551       	92.97701       	94.410805      	93.02404       	92.46947       	94.7048        	93.255356      	93.10705       	94.09464       	92.35258       	92.87919       	93.570435      	93.9654        	94.20301       	94.87758       	94.38919       	94.1173        	94.330795      	94.9038        	95.04272       	94.6749        	94.98601       	93.632164      	93.67733       	94.10656       	94.17101       	94.88482       	94.60758       	94.0044        	94.451645      	94.19014       	94.016846      	94.79251       	94.920204      	94.08191       	95.91554       	94.164635      	94.98759       	93.42067       	93.24051       	95.1378        	93.815056      	94.85086       	94.75858       	94.19947       	95.194214      	94.5464        	94.67928       	95.10641       	95.69255       	95.945564      	94.962814      	95.81778       	96.3387        	95.20204       	94.59598       	93.892654      	94.261116      	94.58882       	94.62919       	94.099236      	94.60558       	94.47382       	93.53737       	93.975174      	93.08442       	93.28465       	93.9673        	93.55924       	94.269684      	95.64251       	94.15059       	94.63044       	93.287315      	92.64506       	94.65651       	95.05453       	93.7791        	93.33232       	
91.58709       	92.37585       	91.988655      	92.93944       	93.15993       	92.12636       	92.798096      	91.25269       	94.05344       	91.789444      	90.6929        	93.59327       	92.47937       	91.5802        	91.95616       	91.84013       	91.765144      	92.35571       	91.68273       	93.30147       	91.377945      	92.90165       	93.39823       	92.68539       	92.41039       	93.68486       	92.245636      	91.759224      	93.09345       	92.00077       	91.8696        	92.10636       	91.706245      	92.45926       	92.60479       	92.02943       	92.724075      	93.3211        	91.257416      	94.343506      	92.96231       	91.491646      	94.01713       	91.98678       	92.922745      	94.816444      	93.16333       	93.75387       	94.43688       	92.96236       	94.69373       	92.62512       	93.8442        	93.91232       	92.823456      	93.969696      	92.86346       	93.707634      	92.9841        	94.46607       	92.992325      	92.14476       	94.32287       	93.47265       	93.109665      	94.75693       	92.95585       	93.05101       	94.150406      	92.72119       	93.294426      	93.43844       	94.193985      	93.67404       	93.18729       	93.4358        	93.01469       	94.45837       	94.17089       	93.24037       	93.91919       	93.992905      	92.732796      	92.058685      	92.92254       	92.58442       	92.96451       	93.47474       	92.016846      	93.21562       	92.396164      	92.86036       	93.202644      	93.05396       	94.10302       	93.14005       	94.072266      	94.41812       	93.12706       	92.39985       	
91.174736      	95.11775       	91.655304      	93.43912       	93.16694       	92.05266       	94.78636       	90.88762       	93.95356       	93.68819       	90.71789       	93.63057       	94.04263       	91.91085       	93.08447       	94.3781        	92.68761       	92.55309       	94.05502       	93.20247       	93.796425      	93.85502       	93.322784      	93.54825       	93.95365       	92.88707       	93.01015       	93.26714       	92.41966       	92.65815       	94.4666        	92.18682       	92.74674       	94.46823       	93.359634      	92.33138       	94.39543       	93.2007        	92.31169       	94.465126      	93.55024       	93.76053       	94.8166        	93.09352       	93.54032       	94.1245        	93.674355      	93.12889       	93.38764       	93.98094       	93.917564      	92.23205       	94.044556      	94.314         	92.33786       	94.237785      	94.58952       	92.12306       	94.60721       	93.57129       	93.70081       	94.27475       	93.457886      	93.16427       	94.1695        	93.57691       	94.62479       	93.89002       	94.387115      	95.44535       	95.91914       	94.291824      	94.72757       	96.01281       	94.651505      	95.47498       	95.04944       	93.899765      	95.0079        	94.09522       	94.98953       	95.32467       	93.93405       	93.81018       	93.99797       	95.52917       	94.701614      	92.44455       	93.59742       	92.0727        	94.46944       	94.24798       	91.39766       	93.956085      	93.309654      	92.578705      	93.37365       	92.95436       	92.72493       	92.62049       	
92.03624       	93.13663       	92.278366      	92.029144      	92.37006       	91.567085      	92.42657       	91.72771       	91.51229       	91.27462       	91.56224       	92.71427       	91.814896      	90.86065       	93.27452       	92.17094       	90.99201       	93.30741       	92.931694      	90.611374      	91.996574      	93.22669       	91.530525      	92.2102        	93.742226      	92.563515      	91.33266       	93.41625       	92.23731       	91.14824       	93.95666       	93.6862        	91.29222       	92.773         	93.821815      	91.22522       	93.477005      	93.71431       	91.52856       	93.13004       	92.862885      	92.7865        	94.182495      	92.82205       	92.02225       	94.10221       	92.22735       	94.65428       	92.68012       	92.85021       	93.952675      	92.40719       	93.66283       	92.54826       	93.408966      	92.69966       	92.673416      	93.19804       	91.647545      	93.994385      	92.74085       	92.0011        	94.74214       	91.82893       	92.34709       	93.27148       	92.26154       	94.75033       	93.636894      	92.82154       	94.061165      	92.88295       	94.37513       	94.52907       	94.36906       	94.39657       	92.36906       	93.86764       	92.191315      	94.02379       	95.1409        	92.64312       	94.92171       	92.65422       	93.2642        	94.89699       	92.95615       	94.465576      	94.256096      	93.32199       	93.19897       	93.14471       	93.76244       	93.28316       	92.00996       	93.48567       	92.74073       	91.60352       	91.18269       	93.03277       	
93.3           	92.92329       	92.73137       	93.406265      	94.15152       	93.6017        	94.44803       	92.958786      	92.61101       	90.48109       	93.74133       	93.92419       	91.83824       	92.154945      	94.74287       	92.74611       	92.09549       	94.885         	93.018684      	92.356636      	94.284744      	93.4753        	91.75766       	93.79506       	93.66618       	92.593025      	93.40815       	94.433105      	92.46541       	93.08508       	94.14157       	92.20052       	93.8385        	94.1807        	93.23697       	94.167435      	94.980415      	93.574585      	94.343155      	94.983154      	92.84266       	93.82581       	94.17939       	92.91405       	93.37957       	94.47555       	94.626465      	93.77241       	93.09443       	94.17198       	93.899445      	93.323204      	94.30681       	93.34586       	94.12406       	94.28655       	93.70173       	95.51031       	93.28324       	94.69374       	95.00642       	93.469696      	94.631096      	94.555176      	94.541336      	95.037056      	94.47757       	94.80542       	94.59811       	94.200005      	95.39371       	94.06177       	95.83233       	95.10451       	95.18815       	95.00675       	93.41888       	93.91884       	94.787476      	94.06857       	94.68208       	94.623344      	93.45741       	93.96497       	94.66491       	94.84347       	93.10623       	95.45647       	93.51702       	93.06139       	94.35047       	93.17734       	94.784294      	94.121635      	92.02091       	94.25582       	93.55711       	92.61874       	92.24772       	92.32332       	
92.22363       	90.808525      	93.428696      	91.019646      	92.12716       	92.23815       	91.53004       	93.00252       	91.73751       	92.13083       	91.75713       	91.13183       	92.73345       	92.692795      	91.39568       	92.994965      	92.60765       	90.95733       	91.943634      	92.90862       	91.90642       	91.88173       	92.851944      	92.02612       	91.50517       	92.86816       	92.768555      	92.748085      	93.36119       	94.24429       	93.20299       	92.830154      	94.59395       	92.70344       	92.89748       	95.06025       	92.99071       	94.01555       	93.39821       	92.75199       	92.963135      	92.764755      	93.93473       	92.94765       	93.38497       	93.71834       	91.888054      	94.42115       	91.119576      	93.58176       	93.46749       	92.50148       	93.88001       	93.06051       	92.8239        	92.92287       	93.658516      	92.96202       	92.8947        	93.09541       	93.67817       	93.07747       	94.52066       	93.76464       	92.87347       	95.340805      	94.20641       	93.60241       	95.09767       	93.664795      	94.30779       	94.194244      	93.59648       	95.01021       	93.062744      	93.84863       	94.46685       	93.601036      	93.45671       	93.86828       	94.05944       	94.244095      	93.09949       	94.28703       	93.992874      	94.278366      	94.472046      	93.15248       	94.73878       	93.62732       	92.47657       	92.455376      	93.90544       	93.37296       	92.34354       	92.92394       	92.7393        	92.194046      	91.90097       	92.30202       	
93.32769       	91.44898       	93.56517       	91.6562        	91.82507       	93.940994      	91.41762       	92.217155      	92.99276       	91.34954       	93.07994       	92.90504       	92.54799       	92.43941       	92.41435       	92.8206        	91.586624      	92.29534       	93.50703       	92.54745       	92.30945       	93.03317       	92.422455      	91.22026       	93.132706      	92.02417       	92.51158       	93.16044       	92.93258       	94.6915        	93.98213       	94.106895      	94.29016       	92.90805       	95.55606       	92.28409       	93.44235       	95.38603       	93.747406      	95.05334       	93.118706      	94.60649       	93.63048       	94.28757       	94.34056       	93.84216       	93.9871        	93.453735      	93.93038       	93.663734      	93.98226       	95.223724      	93.33711       	94.81422       	93.29215       	94.160645      	94.46207       	94.22371       	93.89363       	94.07567       	93.70482       	93.91252       	94.381584      	94.03259       	93.32878       	94.83232       	95.30692       	94.78573       	95.49454       	95.53014       	95.26614       	95.76344       	95.67494       	94.37462       	95.219604      	94.67669       	94.537796      	95.38208       	94.04263       	95.01598       	94.81815       	94.38386       	94.66125       	94.71745       	96.91842       	95.07962       	92.713394      	94.77076       	93.97755       	95.5287        	95.37468       	92.67839       	95.259125      	94.07532       	93.06789       	94.13253       	93.91838       	94.42367       	94.0734        	93.99894       	
92.3453        	91.88208       	92.59449       	92.980415      	92.56975       	91.10389       	93.15457       	92.75688       	90.47143       	92.5027        	92.59557       	90.879105      	92.91004       	92.28761       	90.60742       	91.47465       	92.55385       	90.968056      	91.3925        	92.64513       	91.853775      	91.86618       	92.69601       	92.046646      	92.5956        	92.519905      	92.29134       	93.66333       	93.71713       	93.61331       	93.621864      	93.431595      	93.68951       	93.132034      	93.22993       	93.29182       	92.78723       	93.69416       	92.58179       	92.87174       	93.37418       	93.93489       	93.74085       	93.49569       	93.60051       	93.764336      	92.93173       	93.01016       	92.38518       	93.26925       	92.42948       	92.64258       	93.13651       	92.92622       	92.400116      	92.94705       	92.15317       	92.84258       	93.254776      	92.7206        	93.16136       	92.942665      	93.55216       	92.140045      	94.19518       	93.4737        	92.9657        	95.78266       	93.25924       	95.450554      	94.35429       	94.92501       	95.26491       	93.48015       	94.09132       	93.50276       	93.568954      	93.49665       	93.36714       	94.20715       	93.50917       	93.1045        	93.48636       	93.2694        	94.56965       	93.48613       	94.42306       	94.90872       	93.02156       	93.105606      	93.16475       	92.608894      	92.95235       	92.94625       	93.64748       	93.1835        	93.07024       	94.03089       	93.456         	93.125854      	
92.18023       	93.1724        	91.87242       	92.616425      	92.32903       	92.73677       	92.652306      	91.66207       	92.473465      	94.31245       	92.91556       	92.68006       	94.71681       	93.09611       	91.92596       	94.607285      	93.52625       	92.34809       	94.10367       	94.182686      	92.27432       	94.19196       	94.27475       	93.15223       	93.62542       	93.30119       	92.75847       	93.74132       	94.07655       	94.68527       	93.57625       	94.337875      	94.97241       	93.620415      	94.77813       	95.2292        	94.10371       	95.515755      	93.285194      	94.73351       	94.44621       	93.43343       	95.16771       	93.02405       	93.6908        	94.51592       	93.453705      	92.65568       	94.2467        	93.61258       	93.16393       	94.95182       	93.696175      	94.28711       	94.945         	93.69377       	93.99234       	94.59642       	94.769905      	94.27216       	94.96136       	94.42333       	94.384834      	94.74315       	94.18128       	93.791336      	95.812386      	94.067665      	96.03854       	95.04898       	94.93704       	95.77443       	94.76285       	94.56365       	94.48083       	94.3221        	93.96856       	93.936806      	93.70966       	94.87633       	95.0769        	93.58345       	94.69965       	94.4142        	93.6247        	93.51246       	95.29794       	95.65932       	93.0074        	93.05836       	94.08867       	93.177505      	94.992676      	93.93244       	94.177826      	95.092545      	94.12758       	92.66033       	92.95088       	94.747         	
92.73817       	91.19353       	93.0772        	92.54061       	91.49727       	93.22506       	92.18071       	91.806305      	93.272705      	93.34742       	92.02137       	92.95686       	92.30775       	92.238785      	91.94014       	92.112335      	92.839775      	92.69826       	92.23995       	93.06396       	92.743866      	91.30054       	92.500946      	92.69637       	91.8514        	92.71505       	92.72222       	92.30098       	92.95232       	94.3521        	92.5548        	92.15683       	91.57511       	93.49584       	91.53688       	92.42303       	93.643524      	91.44734       	94.1513        	93.16625       	92.323         	95.1961        	91.71005       	93.39424       	94.62292       	92.51733       	93.136246      	92.62453       	93.20073       	92.37607       	93.696014      	92.58351       	92.657295      	93.73874       	92.38351       	94.51123       	92.95809       	93.59372       	94.82724       	92.95668       	94.14429       	94.4587        	93.830894      	94.24338       	93.829636      	94.890274      	94.033554      	95.28288       	94.6382        	93.409424      	95.87352       	94.25163       	93.95932       	94.50403       	93.625336      	95.17799       	93.191475      	94.36486       	94.89901       	93.7266        	95.25398       	94.554695      	94.05636       	93.32276       	93.98039       	94.2004        	93.83782       	93.65528       	93.8106        	94.25473       	94.51683       	93.38215       	94.840385      	94.11351       	93.00845       	94.49881       	94.20444       	94.20102       	93.996635      	93.718834      	
91.5964        	92.56475       	92.35479       	91.646774      	91.82368       	93.06438       	92.14958       	91.62263       	93.487114      	92.9827        	92.065765      	93.03813       	93.17827       	92.49336       	92.28883       	92.658554      	92.7966        	92.03292       	92.98564       	93.35454       	92.900795      	92.112114      	92.76582       	93.16715       	92.46578       	92.422325      	93.42102       	92.37358       	92.93309       	93.344955      	92.60799       	92.75402       	93.68255       	93.356636      	92.70745       	93.89831       	93.29597       	93.46032       	93.716255      	92.45484       	93.76831       	94.5642        	93.15368       	94.14726       	94.163155      	93.890854      	94.50198       	93.72014       	94.05844       	93.82418       	93.52697       	93.964226      	94.15131       	93.64453       	93.374596      	94.48803       	92.55191       	94.119026      	94.08519       	93.303055      	95.339775      	94.83241       	95.21435       	95.69919       	94.20443       	94.85686       	95.47005       	94.46252       	96.20882       	93.773895      	94.16881       	94.06547       	93.956474      	94.22726       	94.23901       	94.66649       	94.735344      	95.32918       	94.187225      	93.85436       	95.21837       	93.629234      	94.483444      	95.08717       	94.425644      	95.67143       	93.55038       	92.84456       	93.96817       	92.806915      	93.47199       	93.62843       	93.28484       	93.346054      	93.1727        	94.19288       	94.21862       	93.28432       	92.45321       	93.47961       	
92.894165      	92.91861       	94.45899       	91.83997       	93.80635       	92.793         	92.76818       	93.49003       	92.357185      	92.82634       	93.198654      	92.39226       	93.95117       	92.18745       	93.5074        	93.32939       	92.10478       	93.97023       	93.96969       	92.52818       	92.85359       	93.49306       	91.9672        	92.5769        	93.92964       	93.08876       	92.583084      	93.57671       	94.08626       	92.98836       	94.26062       	94.350784      	94.648186      	93.12178       	94.77941       	92.4902        	93.55937       	94.89348       	93.847786      	93.131454      	94.78366       	93.67735       	93.26835       	94.0365        	93.6293        	94.75432       	93.94666       	95.342255      	93.23026       	94.38126       	93.983604      	93.09254       	95.766045      	93.67735       	93.74095       	93.86307       	92.947914      	94.67337       	92.66053       	92.90548       	93.44101       	93.3602        	94.328735      	94.34091       	94.63407       	94.16983       	94.95085       	95.717415      	94.14161       	95.20015       	95.68454       	94.5705        	96.17911       	94.453         	95.19115       	94.63437       	94.40917       	94.7808        	95.28418       	94.99622       	94.16739       	95.180984      	93.857254      	94.33226       	93.87724       	93.7492        	95.22103       	95.20152       	94.879715      	96.081         	94.60408       	95.23504       	94.60453       	94.40654       	93.79355       	94.224594      	94.14371       	94.02259       	94.20269       	94.32342       	
92.51334       	92.74646       	92.69803       	92.82221       	92.28282       	92.17681       	91.41033       	92.76608       	92.54103       	91.42184       	92.919846      	91.858284      	90.99419       	93.44832       	90.98788       	92.20651       	92.59068       	90.68721       	92.59206       	92.744316      	92.01799       	92.05258       	92.83301       	92.550705      	92.649796      	93.17071       	92.81896       	92.65295       	93.04061       	91.80926       	93.13223       	92.223526      	92.16147       	93.45967       	91.994156      	92.024895      	93.79139       	91.10697       	93.37076       	93.14273       	90.90649       	92.618164      	93.697525      	92.428986      	93.60217       	92.56291       	92.79216       	92.74791       	92.66454       	93.48703       	92.02702       	93.340546      	93.27572       	92.495834      	93.74291       	94.272736      	92.9134        	93.78336       	93.32298       	93.35637       	94.6027        	94.642654      	94.20448       	94.10888       	93.516884      	94.14909       	93.268364      	93.502304      	93.67237       	93.059235      	94.73133       	92.19223       	94.31805       	94.25248       	92.26677       	95.55534       	92.40434       	93.968414      	93.65869       	92.73619       	94.986336      	94.06475       	93.333244      	94.357704      	95.01199       	94.584236      	92.95386       	93.979416      	93.76862       	92.16479       	93.53475       	92.33866       	92.33223       	93.76986       	92.50688       	93.56927       	94.03915       	93.31535       	93.127975      	92.96219       	
93.69096       	93.78299       	93.87322       	93.798515      	93.72063       	92.82227       	94.065475      	92.26403       	93.79359       	95.63074       	93.377815      	94.25292       	94.362434      	94.9847        	93.22613       	93.98674       	93.92825       	94.259575      	95.06862       	93.30268       	93.495415      	93.885345      	93.457306      	93.31041       	93.85395       	93.467445      	93.09685       	93.40157       	93.46998       	93.684746      	94.503265      	92.90437       	93.142105      	94.090935      	91.86304       	93.193695      	93.50804       	91.8435        	93.22426       	94.563385      	92.52638       	92.94088       	94.43742       	93.01191       	92.60755       	94.118774      	92.52458       	93.44019       	94.07194       	93.74593       	93.50599       	93.7695        	94.49402       	93.57207       	94.20283       	94.499985      	93.65706       	92.953         	93.65534       	94.14973       	93.19848       	94.119125      	95.29347       	94.05257       	93.93172       	95.455185      	93.47651       	93.9362        	94.147095      	93.028206      	94.557846      	92.98155       	92.95891       	94.00316       	93.80655       	93.62963       	93.6228        	93.54564       	93.0763        	94.26268       	94.11504       	93.30712       	94.8838        	93.34767       	92.87469       	93.96178       	93.679924      	93.05179       	93.07051       	92.609055      	93.035         	93.13223       	92.04334       	92.66183       	93.53853       	91.76861       	91.6388        	92.60159       	92.664925      	92.68981       	
89.04191       	96.149284      	91.65024       	95.41788       	93.68797       	94.88783       	94.34632       	91.521225      	94.595695      	91.90789       	92.22218       	91.7485        	91.3608        	93.47245       	92.69913       	91.74004       	92.78465       	92.67524       	91.88996       	93.340645      	93.39494       	91.668625      	92.251045      	93.46778       	91.29338       	91.78598       	94.426605      	92.81592       	91.72383       	95.346436      	93.27929       	91.37687       	94.31384       	93.04595       	91.992546      	93.901375      	91.591835      	93.55171       	93.50247       	93.28549       	93.825615      	92.10912       	94.37023       	93.44014       	91.967926      	94.31939       	93.12945       	93.98779       	94.20566       	92.60304       	94.282394      	93.70565       	93.67565       	94.89995       	93.710724      	93.493904      	95.36667       	93.93547       	92.96163       	95.10409       	93.39505       	93.37892       	94.948135      	94.7553        	94.59228       	95.50754       	95.13754       	95.186714      	94.815025      	95.11901       	94.09533       	96.01563       	94.17784       	93.06419       	95.73136       	93.99222       	93.77009       	95.55868       	92.93668       	94.367065      	93.97326       	94.05191       	94.69524       	94.815025      	94.08936       	94.981         	94.33062       	93.1482        	94.85448       	93.55832       	93.2804        	94.94389       	93.56979       	93.77507       	93.11437       	93.29911       	92.91827       	92.97783       	93.29317       	93.25396       	
92.825356      	92.6777        	92.40541       	94.437164      	91.53199       	93.56337       	95.7891        	93.07396       	94.6239        	94.511604      	93.593475      	95.767204      	93.880035      	94.14014       	93.188484      	93.35649       	94.62561       	92.32413       	93.8709        	93.9789        	91.337395      	92.90914       	93.847565      	91.47775       	93.39967       	93.40812       	91.731674      	93.34529       	94.09407       	92.62869       	94.003914      	93.369354      	93.20907       	93.57846       	92.90402       	94.25247       	93.89041       	92.48605       	94.89275       	94.534805      	92.41469       	94.90883       	94.155716      	92.25678       	94.39572       	92.90292       	93.83231       	93.52165       	92.377144      	93.87408       	93.68285       	92.8215        	95.02375       	94.52166       	93.24686       	94.41779       	93.94713       	93.43937       	94.34254       	94.77075       	93.465385      	94.68232       	94.46972       	93.80831       	94.41124       	94.19186       	93.80452       	93.713         	94.35584       	93.044         	93.439644      	94.03712       	92.6566        	93.94706       	94.56397       	94.20146       	93.609566      	95.93087       	94.702995      	94.17773       	95.01796       	94.44003       	93.22104       	94.509285      	93.48622       	93.05586       	95.23222       	94.01965       	93.07281       	95.18151       	93.67444       	96.100105      	95.370605      	93.921616      	95.91855       	95.034386      	94.037186      	93.6845        	94.1905        	94.59374       	
94.353935      	92.74745       	93.41127       	94.0616        	92.00123       	92.20051       	94.33908       	93.16995       	94.58735       	94.10999       	94.602135      	95.26561       	93.06993       	94.280594      	95.22592       	93.39525       	94.6826        	92.776726      	93.90817       	94.32393       	92.43945       	93.757706      	93.4301        	92.83758       	94.00085       	93.58345       	94.02286       	93.91175       	93.43846       	93.473335      	94.65426       	94.15195       	92.63548       	95.098526      	93.7233        	93.56372       	95.88745       	92.85274       	95.67386       	94.65317       	93.11512       	94.55787       	94.03443       	92.82829       	95.364334      	94.16148       	93.51415       	96.25488       	93.10604       	94.35847       	95.58713       	93.411064      	95.42777       	93.96172       	94.60562       	94.594246      	94.79526       	94.32402       	94.221016      	95.58458       	95.228134      	93.78284       	95.45821       	95.39643       	95.43115       	95.83435       	95.19289       	95.28913       	95.91977       	93.51652       	95.60086       	94.224236      	94.59191       	95.143196      	94.13358       	94.13055       	94.61789       	94.259605      	94.56737       	94.878044      	95.52536       	94.06071       	95.08617       	94.83191       	93.8886        	94.80675       	94.45238       	93.08238       	94.16631       	93.439865      	92.14206       	94.46886       	92.98218       	94.936844      	94.36577       	92.54862       	92.90914       	94.1344        	94.50306       	94.049355      	
94.052444      	93.26676       	95.12903       	91.74867       	94.36754       	94.171684      	93.23593       	93.8278        	93.267525      	93.06245       	94.012085      	92.76812       	93.86747       	94.25092       	93.14803       	94.42692       	93.257576      	94.00941       	94.54274       	92.47368       	93.28757       	93.72775       	92.50107       	92.62401       	93.27164       	93.42757       	92.46859       	93.104355      	93.60742       	92.72306       	94.32389       	92.775215      	93.6279        	95.165565      	92.99615       	94.75862       	94.87751       	92.56104       	94.55713       	95.39418       	91.85189       	95.529465      	93.77241       	92.97237       	95.95053       	92.79787       	93.38258       	95.93306       	91.91623       	96.48793       	92.80997       	94.87035       	94.17331       	93.62003       	95.27051       	92.84657       	93.62629       	94.488495      	92.94588       	94.03679       	92.95532       	93.60054       	93.849724      	92.273155      	93.79016       	91.89867       	93.76478       	93.318275      	92.29192       	94.21479       	92.491035      	93.62741       	94.32238       	93.162704      	94.66588       	94.11256       	94.58721       	93.74509       	94.172134      	94.33794       	93.4402        	94.878006      	94.38738       	93.493164      	94.45494       	91.65085       	93.52259       	93.652176      	92.33554       	94.29833       	93.36605       	93.86468       	94.154015      	94.22879       	94.09941       	92.76625       	95.46632       	93.37587       	92.438675      	92.38148       	
93.48127       	93.76637       	93.49568       	92.60814       	93.28231       	93.697784      	93.13636       	94.472664      	94.44007       	93.51012       	94.4179        	93.80408       	92.93152       	93.94262       	92.983955      	93.331085      	93.132965      	93.70424       	93.45104       	93.28952       	93.89317       	92.8501        	93.10369       	93.98251       	93.78692       	94.205765      	93.187614      	93.10894       	94.08418       	92.903564      	92.57227       	93.52145       	92.59505       	92.61893       	94.06633       	92.88399       	93.033554      	94.073746      	92.51534       	92.718994      	93.06021       	93.403         	92.8099        	93.748985      	93.97472       	93.10412       	94.70967       	94.0854        	93.60067       	94.03509       	94.96374       	93.41489       	94.21097       	94.90856       	92.645065      	94.01317       	93.63712       	92.5331        	94.606735      	93.549194      	93.62663       	95.12049       	94.644135      	94.17826       	94.10966       	94.83626       	94.10128       	94.18903       	95.32216       	93.83717       	94.15719       	94.29387       	93.619026      	93.70782       	94.1258        	94.628784      	93.47834       	94.43119       	94.86841       	93.80754       	95.13452       	95.58163       	94.74585       	94.95414       	94.23537       	94.04251       	94.66712       	94.693924      	94.40035       	94.57769       	95.005424      	94.117294      	94.436195      	95.42249       	93.15278       	93.68904       	94.96607       	93.52677       	93.5038        	93.58533       	
92.88383       	93.445366      	93.56099       	91.90929       	93.60467       	94.64472       	92.459145      	94.94823       	91.82955       	93.94506       	93.17026       	92.94463       	94.15219       	93.01533       	92.65329       	94.31646       	93.01445       	92.89761       	93.04251       	93.2602        	92.89301       	93.284996      	92.87505       	93.11918       	92.387085      	91.96915       	92.215         	91.963135      	91.90883       	94.09712       	90.34171       	91.991806      	93.10125       	89.90379       	93.198944      	92.6285        	90.00727       	93.751335      	90.85863       	92.43527       	93.17486       	92.90779       	94.621216      	92.66517       	94.012314      	93.64079       	93.97623       	93.67536       	92.63968       	95.09223       	92.76816       	94.134186      	93.76854       	92.181435      	94.59752       	91.685265      	94.205864      	95.33158       	93.29373       	95.39971       	94.888336      	94.38899       	95.443184      	93.62093       	95.159515      	93.42184       	95.03077       	93.46163       	94.3155        	95.00761       	93.41169       	96.12179       	94.38374       	94.65865       	96.2008        	94.08582       	95.00267       	96.17651       	94.86312       	94.81987       	94.720825      	94.541534      	94.96932       	94.71119       	95.03966       	94.382965      	94.4399        	94.63454       	93.90553       	95.12353       	93.59863       	94.42723       	94.725555      	93.52474       	94.68267       	93.778076      	93.948975      	93.3242        	94.919         	93.878         	
91.4797        	94.65132       	92.47672       	94.34928       	94.19976       	93.91615       	94.610344      	93.429634      	94.027306      	94.04687       	94.31058       	93.34753       	93.97254       	94.7502        	93.39943       	95.529465      	91.703545      	94.44624       	92.04402       	91.95958       	95.475746      	93.99096       	95.48329       	95.0107        	92.70119       	95.83821       	93.6342        	91.88112       	93.71319       	92.177864      	92.79819       	92.32326       	92.53303       	94.00389       	91.8846        	93.351074      	92.37432       	93.15126       	93.23825       	92.96632       	94.47975       	91.89711       	94.99943       	93.61707       	93.444305      	94.5854        	93.20145       	95.04389       	94.27715       	94.58154       	93.90206       	93.55634       	94.185844      	94.160034      	94.84692       	94.47254       	92.995605      	95.53349       	93.91146       	93.56567       	95.062225      	92.52197       	96.58373       	94.63715       	93.01473       	95.01037       	93.834145      	95.3759        	93.553764      	93.784805      	94.6433        	94.1759        	94.92355       	94.69721       	93.81267       	94.07637       	94.021225      	95.63065       	93.51042       	93.77103       	95.77434       	91.886765      	94.48668       	95.535904      	92.77421       	96.67122       	93.79041       	95.74076       	96.18881       	91.24471       	97.50326       	94.04555       	91.92216       	96.453125      	92.49104       	95.68994       	94.95665       	92.93628       	94.49308       	95.076904      	
91.01561       	93.400986      	91.464554      	89.83919       	93.1926        	89.73314       	92.982704      	94.693985      	90.3753        	95.02006       	91.72917       	93.61993       	93.58106       	90.52083       	94.31498       	91.01303       	94.16458       	91.11791       	92.1269        	93.35844       	91.51717       	92.46916       	93.57552       	91.89335       	93.597664      	92.666         	93.06021       	93.66866       	91.24091       	93.88972       	92.68156       	92.85575       	92.51393       	91.73295       	92.90303       	91.762054      	92.16955       	93.01974       	92.807945      	92.17142       	92.9455        	92.97862       	92.64423       	93.47885       	92.35698       	92.27304       	94.60577       	91.51907       	92.849365      	93.19898       	92.98165       	94.7349        	92.68198       	94.03052       	94.45101       	93.86202       	93.28572       	92.93449       	94.63478       	93.74892       	93.77961       	93.486855      	94.170456      	94.35705       	92.52723       	94.59493       	92.86391       	94.89213       	94.07768       	92.245575      	95.25827       	94.69315       	91.95763       	95.472374      	96.035         	93.247314      	95.345856      	93.00711       	94.548225      	95.11198       	92.75345       	94.53533       	93.02526       	93.561485      	93.55452       	93.6748        	93.809906      	92.59379       	91.87088       	92.64727       	92.69329       	92.0231        	92.58847       	93.55522       	92.85943       	92.48361       	92.324295      	93.5279        	93.09473       	92.59835       	
95.20673       	93.30513       	93.53847       	92.98199       	93.45527       	93.54296       	93.63398       	94.39808       	94.22017       	94.003944      	94.15498       	93.45434       	93.04737       	94.96191       	92.973785      	92.683105      	94.69376       	93.94715       	93.89249       	93.762924      	93.55559       	93.76461       	93.877686      	93.22128       	93.23134       	94.36628       	92.369804      	93.10783       	95.05229       	92.28634       	94.68094       	94.54318       	94.00108       	93.91483       	92.15218       	93.655815      	92.71807       	93.17944       	93.68948       	93.0044        	92.84966       	93.4359        	93.17719       	92.895134      	93.759766      	93.28907       	92.95766       	94.41701       	92.63453       	93.011         	93.99307       	93.386345      	94.525764      	93.03736       	92.705925      	94.40404       	94.75416       	92.37968       	94.32125       	92.73326       	94.27792       	94.95705       	92.48768       	94.32103       	93.20341       	93.35513       	94.47042       	93.77184       	94.04577       	94.15524       	93.74315       	93.40535       	93.94792       	93.89103       	92.885056      	94.42504       	93.92237       	92.5758        	95.35714       	93.27249       	92.64116       	94.22253       	93.30757       	94.23985       	94.4196        	94.26945       	93.900475      	95.51184       	95.31616       	93.57252       	95.31933       	94.57494       	91.74904       	95.789505      	93.417534      	94.371216      	95.14749       	94.65453       	92.3946        	91.78809       	
94.23633       	93.96696       	93.04085       	92.677826      	92.71009       	92.48943       	94.297775      	94.47244       	91.867905      	94.1725        	93.9025        	93.43334       	94.68556       	92.88673       	93.82734       	93.24956       	93.05749       	93.33845       	93.17884       	92.57032       	91.95474       	93.01587       	93.68265       	93.2804        	94.69728       	93.27503       	94.14381       	94.219284      	92.21974       	94.55046       	92.2041        	92.75463       	93.109825      	92.8177        	93.540855      	92.896645      	92.846016      	93.01895       	93.94686       	92.829475      	93.456696      	93.106476      	93.19006       	94.78744       	92.55572       	93.81421       	95.38586       	92.424034      	95.33176       	94.19305       	92.17178       	95.12349       	92.348145      	93.94505       	95.425575      	92.95082       	95.238106      	93.29179       	94.05188       	95.85912       	93.1808        	94.424446      	94.3341        	92.23634       	94.99671       	93.5           	93.382454      	95.08205       	91.548355      	94.72891       	96.291595      	92.28797       	93.42768       	95.583145      	92.7577        	92.12072       	95.03978       	92.29508       	94.76986       	93.514534      	93.09394       	95.11353       	93.19116       	93.812546      	94.56353       	92.381256      	93.44705       	92.88855       	92.63116       	92.908035      	93.4839        	92.69458       	92.864555      	93.10523       	91.93893       	93.18265       	94.202065      	94.14012       	93.39558       	92.22322       	
91.89638       	93.65844       	94.69494       	91.96863       	94.832184      	91.78333       	93.31775       	94.197845      	93.27196       	94.80212       	92.1018        	93.20075       	94.07823       	92.93314       	93.15199       	93.43393       	93.39812       	92.99809       	92.9195        	93.88974       	91.95797       	93.66606       	93.20198       	93.22799       	94.36834       	92.953865      	93.34622       	94.11186       	92.45162       	95.13732       	92.39857       	93.66523       	92.55805       	92.43839       	93.8789        	93.661125      	93.28646       	93.814156      	93.84413       	93.36284       	93.7531        	93.07443       	95.12823       	93.487175      	92.98673       	95.67163       	92.58489       	93.78186       	95.20487       	92.15062       	94.7078        	94.43019       	92.334724      	95.03629       	92.46594       	93.48132       	94.823         	92.38406       	95.79684       	93.51641       	94.21077       	95.62145       	93.204475      	96.040825      	94.259224      	92.72407       	96.11288       	94.07234       	92.46858       	96.53174       	93.56473       	93.15743       	96.177505      	92.91539       	92.89196       	95.47759       	93.07215       	93.3608        	95.062386      	92.60139       	93.54257       	95.081825      	91.59345       	94.05131       	92.09765       	92.674164      	93.9133        	92.41202       	94.38779       	92.42083       	91.79267       	93.170364      	92.64716       	95.37281       	93.47017       	92.46452       	93.34077       	94.64779       	94.408676      	92.09459       	
92.57127       	91.59748       	93.0148        	92.74519       	92.36215       	92.752426      	92.13726       	93.848274      	93.733         	92.09486       	93.77669       	92.60959       	92.75127       	93.51513       	92.19323       	93.61885       	93.765335      	91.92665       	94.028404      	92.77186       	92.84248       	93.57606       	92.95167       	93.21971       	93.622406      	92.65807       	93.0309        	93.12574       	92.187386      	92.48547       	93.78858       	91.460526      	93.28169       	92.89506       	92.730675      	94.08135       	92.352715      	92.27751       	93.72961       	92.25049       	91.85385       	93.121574      	92.09663       	92.55592       	93.7234        	93.83278       	93.45561       	92.63465       	94.03708       	93.95213       	91.96496       	94.83051       	93.55138       	92.85002       	95.02432       	93.400444      	95.77596       	95.6473        	94.8768        	95.09266       	94.09323       	95.11583       	95.14952       	95.117874      	94.044586      	94.8422        	95.08008       	92.9525        	94.95809       	95.623215      	93.77428       	95.82805       	95.039986      	92.828094      	94.60758       	95.90126       	92.71257       	94.7066        	95.42363       	93.1571        	95.859535      	93.107346      	93.377914      	94.15043       	93.45564       	93.39485       	93.882416      	93.56646       	93.21489       	94.66252       	93.209625      	94.700516      	94.93718       	91.31397       	92.849396      	95.71075       	92.87516       	91.58019       	92.15691       	94.80985       	
91.37833       	93.255974      	93.05732       	93.740486      	94.05432       	91.95566       	94.54534       	93.50407       	94.41236       	93.81556       	92.21811       	93.78646       	94.776726      	93.294975      	94.54061       	94.410065      	92.301315      	93.47476       	90.64624       	94.62757       	92.83298       	91.72482       	95.15724       	92.50898       	93.767204      	95.03804       	92.97672       	94.72168       	94.25338       	92.30469       	94.7157        	93.615         	94.379074      	94.750084      	93.18371       	94.05653       	94.58339       	92.4753        	94.47918       	94.546295      	92.75797       	93.48915       	94.78643       	93.67952       	94.38623       	95.364456      	94.49107       	94.82795       	94.51224       	93.991776      	95.94418       	93.23559       	95.34105       	95.103836      	93.34938       	95.708855      	93.95101       	93.68721       	96.41472       	93.81086       	95.5124        	94.865326      	93.8119        	96.30589       	94.69641       	94.08379       	95.333046      	95.11429       	93.2662        	95.76647       	95.03185       	93.23421       	93.64102       	94.80627       	93.79001       	93.66765       	94.82514       	93.3884        	93.66824       	93.34881       	94.174934      	93.87951       	94.784874      	94.09014       	93.76541       	94.81657       	93.31742       	93.89916       	93.74411       	93.44514       	94.24901       	94.29211       	93.238235      	95.771736      	92.969986      	92.96833       	96.07189       	95.13783       	93.19441       	91.73149       	
95.06351       	93.17433       	96.2206        	90.75822       	94.723755      	95.18405       	92.23536       	95.03822       	93.0128        	93.52431       	94.29039       	92.53064       	94.54817       	93.407715      	93.25378       	94.162834      	92.87049       	94.46469       	93.0345        	93.88661       	93.51922       	93.444595      	93.678825      	93.905         	93.71766       	93.10084       	93.0999        	93.22145       	93.39084       	93.82938       	93.758545      	94.52862       	94.09114       	92.35681       	94.54534       	94.66886       	92.92996       	95.37475       	93.39643       	94.00174       	95.46314       	93.78942       	94.24991       	96.044266      	93.5262        	94.874756      	94.49857       	93.55449       	95.09998       	93.59502       	94.09736       	96.00691       	94.58118       	95.286385      	95.18981       	94.985435      	95.4706        	95.78785       	94.3663        	95.29268       	95.02896       	93.524574      	95.04953       	96.006546      	93.0535        	95.54648       	93.82457       	93.04895       	94.6314        	94.91466       	92.75082       	94.67034       	94.49433       	93.491684      	93.70238       	95.493484      	94.48954       	93.52901       	95.15424       	94.6088        	93.71573       	95.33534       	94.64178       	94.46944       	94.85104       	94.48443       	93.9962        	95.455765      	93.13663       	95.81471       	93.40519       	93.96053       	95.85562       	92.37816       	94.1814        	96.26425       	95.16185       	93.57411       	92.79431       	93.29342       	
92.52739       	91.2996        	93.152725      	92.63852       	91.15724       	93.977615      	91.0986        	94.312294      	93.54186       	91.16521       	94.88517       	93.09018       	92.35119       	93.589874      	92.88758       	92.33947       	94.27128       	93.19007       	92.263954      	92.52614       	93.58301       	92.898476      	93.23238       	92.49506       	91.85711       	92.75047       	93.195724      	92.42192       	92.75463       	93.18117       	92.03643       	93.22203       	91.232346      	92.84053       	94.58207       	91.32829       	92.34642       	92.91059       	91.20341       	94.38771       	90.35453       	91.39387       	94.65726       	91.84286       	93.67628       	93.70485       	92.95824       	93.963         	92.6919        	93.07964       	93.32032       	93.19263       	92.398766      	93.30233       	93.13965       	92.32858       	93.95863       	91.033585      	92.673996      	93.62331       	90.9486        	93.62879       	93.40035       	91.95271       	94.24433       	93.01478       	93.15974       	94.74046       	93.14913       	93.68295       	93.58196       	93.31908       	92.61141       	92.79414       	93.60152       	94.19261       	92.73865       	94.410126      	95.370445      	91.908905      	95.66773       	93.71741       	91.30465       	95.2733        	92.2919        	94.06361       	94.34814       	92.98565       	94.563545      	92.271645      	93.0134        	93.49321       	92.458115      	94.725716      	93.64967       	93.00301       	94.4568        	94.98536       	94.219246      	92.60301       	
90.40218       	95.82757       	91.04723       	95.56417       	92.91539       	93.71259       	93.757065      	90.92839       	94.37365       	91.61098       	94.19289       	93.694305      	92.49679       	94.503456      	93.87485       	91.844086      	93.575         	94.68462       	91.71814       	93.71723       	94.38506       	91.57254       	93.07076       	94.087074      	91.56636       	93.147385      	93.913414      	92.95068       	93.33923       	94.94824       	94.2731        	95.41794       	93.967766      	93.353516      	95.6324        	93.039474      	94.343475      	94.049324      	92.975204      	94.43258       	92.36728       	93.124756      	94.46306       	93.27241       	92.469536      	94.719086      	93.54467       	91.927284      	94.5166        	94.596085      	92.44134       	94.97701       	94.746376      	93.26686       	95.72372       	93.16549       	95.15874       	94.53768       	93.87912       	94.47127       	93.84107       	93.980644      	94.04464       	94.92402       	93.76142       	93.60955       	95.498695      	95.37454       	93.38212       	94.09107       	95.1757        	92.45261       	93.547905      	94.97538       	93.098755      	93.22457       	95.37001       	94.74958       	92.675285      	94.59804       	93.57687       	93.24537       	95.196686      	91.68217       	95.70177       	94.00111       	93.33678       	95.30596       	93.53978       	94.90687       	94.815346      	93.85951       	94.67836       	94.77063       	94.36663       	93.911575      	93.85175       	94.38807       	94.21866       	94.68489       	
92.84584       	92.33697       	93.2621        	93.063324      	93.503044      	92.99596       	94.36601       	93.860016      	93.0321        	95.18211       	92.62564       	92.893814      	94.698654      	90.74165       	93.63676       	94.544075      	90.082245      	94.38505       	95.597084      	91.27046       	93.57387       	95.63757       	91.131996      	94.89066       	92.9037        	91.523224      	94.177505      	92.46884       	94.16781       	94.88863       	92.85747       	93.561516      	94.97969       	92.40267       	94.76301       	92.79391       	92.62049       	95.62733       	91.894485      	94.83915       	92.86069       	91.93497       	96.20207       	93.48364       	91.50374       	95.390434      	92.051025      	93.26078       	94.81087       	93.00905       	94.60019       	95.268234      	93.46431       	95.42261       	94.06219       	93.384605      	96.39041       	92.70987       	95.29864       	94.54854       	93.041016      	94.99205       	94.585014      	93.75252       	94.867546      	94.96906       	93.90458       	94.89279       	94.749504      	94.15184       	93.86278       	93.612724      	94.38791       	93.282974      	93.64699       	94.964424      	93.64478       	92.72658       	94.927864      	93.96011       	92.27299       	95.11666       	94.61397       	90.63146       	94.03397       	93.35668       	90.756         	93.82959       	93.71455       	90.445694      	94.62842       	92.479935      	91.74779       	96.085785      	93.96745       	91.48547       	92.251625      	94.331375      	95.816864      	92.66667       	
94.42894       	89.70756       	94.17611       	91.31131       	92.597275      	94.0211        	91.50136       	94.376114      	92.1416        	94.26663       	92.40225       	91.9017        	94.70614       	91.95248       	92.39593       	94.125         	92.84054       	92.77698       	93.67339       	92.809456      	93.08268       	92.55207       	93.19313       	92.512886      	92.15487       	93.78259       	91.25152       	93.151535      	94.302414      	91.584175      	94.09298       	92.81825       	91.66069       	93.58179       	91.473175      	92.92481       	90.7907        	93.29847       	94.99737       	89.693085      	93.2399        	95.371826      	90.68788       	91.55904       	93.80355       	89.57296       	94.44422       	91.581055      	90.901985      	95.2092        	92.36791       	92.41255       	95.944405      	91.38689       	95.10308       	94.07728       	93.59319       	94.24189       	92.14395       	93.99743       	95.22205       	92.33857       	96.32415       	90.95269       	96.292114      	92.94825       	91.31332       	95.76264       	94.12294       	91.1483        	95.08781       	95.071686      	91.52111       	95.11975       	94.96599       	91.498726      	96.50359       	94.8567        	92.7191        	95.904175      	93.5464        	92.34704       	95.09368       	92.03635       	94.07345       	93.25876       	92.07715       	93.16061       	93.94343       	92.75012       	93.62573       	94.27075       	93.38074       	93.130035      	94.65459       	94.62171       	93.50309       	92.48197       	94.278694      	93.961876      	
94.15131       	93.22472       	93.341995      	94.00727       	93.219765      	94.69288       	93.65357       	91.48732       	93.11881       	90.95578       	92.95471       	95.7892        	91.6731        	95.70341       	92.58717       	91.7142        	94.73535       	91.68676       	91.82374       	94.53626       	92.171295      	90.910034      	93.81285       	93.267624      	90.946014      	93.70499       	92.01732       	92.73188       	94.425995      	93.04741       	93.67757       	93.9782        	92.14947       	92.83446       	93.42935       	93.38454       	94.30617       	93.88518       	92.69488       	93.91722       	93.86019       	92.688736      	93.577225      	93.65979       	92.3805        	94.10686       	94.255005      	93.51786       	92.89983       	94.08366       	94.394394      	93.68936       	93.74639       	94.94062       	93.64162       	94.7834        	95.25834       	92.964714      	95.23927       	95.109825      	92.20125       	95.30526       	93.73847       	92.18924       	95.98721       	94.343094      	91.68465       	94.60262       	94.61193       	91.27214       	93.72286       	96.10287       	91.89954       	92.965576      	96.24059       	92.63602       	92.81698       	96.10013       	92.77524       	92.82559       	95.68065       	93.83838       	93.26185       	95.11727       	92.441574      	93.99341       	93.744576      	92.68884       	95.26571       	92.313675      	92.15991       	96.19865       	91.68858       	92.62598       	96.23767       	91.826065      	91.49421       	94.819534      	96.811714      	95.07004       	
92.82353       	92.97829       	91.55788       	93.80106       	93.87947       	90.61716       	93.49019       	90.92695       	93.351845      	95.21517       	94.98253       	96.48359       	92.58039       	95.590904      	91.98473       	92.81852       	94.698784      	92.99094       	92.6831        	94.656425      	92.38807       	93.43565       	93.819626      	92.93698       	93.17924       	93.93034       	94.22778       	93.38986       	95.16534       	92.955376      	95.63022       	93.850876      	91.04581       	95.5199        	90.74904       	96.20366       	93.87024       	92.686264      	97.42443       	90.14794       	97.07996       	91.41717       	92.23808       	97.377045      	90.51283       	97.07743       	95.06098       	89.363785      	96.78834       	96.020035      	90.10369       	96.472046      	96.37477       	91.21803       	97.70219       	91.62407       	94.03993       	96.372406      	90.50389       	96.46275       	93.529945      	91.34131       	95.1739        	95.356636      	91.58869       	94.34237       	94.72224       	92.28189       	94.33957       	94.79595       	93.46048       	94.246346      	94.34085       	93.5885        	93.43584       	94.13151       	94.343765      	93.327034      	93.54094       	93.98864       	92.13304       	92.61854       	94.51115       	93.67386       	92.47185       	94.59628       	93.77958       	92.14087       	94.40055       	93.91992       	91.67158       	94.657         	94.71695       	92.726814      	93.42827       	95.47553       	93.75015       	92.95352       	93.173355      	94.452934      	
92.240425      	94.82633       	92.69571       	90.115364      	92.766754      	90.816605      	93.48796       	94.367294      	91.70474       	95.10779       	92.45192       	92.032394      	94.6379        	92.33529       	93.3028        	93.20472       	93.300224      	93.441376      	92.98711       	93.47423       	93.40717       	93.358345      	92.52519       	92.57722       	92.1351        	92.2915        	94.32875       	90.833694      	93.18033       	95.172646      	93.96587       	95.527756      	93.52501       	91.22468       	95.31619       	92.41204       	95.13913       	91.88061       	92.80146       	95.51594       	91.62407       	95.47388       	94.49214       	91.37012       	93.80213       	95.93382       	92.37846       	95.86007       	93.25166       	94.05496       	94.65002       	92.965416      	94.58653       	93.95987       	93.53647       	94.092476      	94.09728       	92.5448        	93.07059       	94.33271       	93.61711       	93.172035      	94.96905       	93.29408       	92.73304       	94.96338       	94.61829       	92.616104      	94.326584      	94.83019       	93.362495      	93.64778       	95.04103       	93.27214       	93.57619       	94.242935      	94.46469       	93.74261       	93.54609       	94.524445      	93.78067       	93.50618       	93.99281       	95.006836      	92.88327       	95.001175      	94.76043       	92.77724       	94.20717       	95.186         	92.11948       	94.15064       	95.75366       	92.477         	92.3875        	94.746124      	94.55619       	93.17463       	92.09334       	95.14509       	
94.3839        	91.24285       	91.5127        	91.76002       	94.86408       	93.33716       	90.81046       	93.27991       	92.27967       	94.058464      	94.36522       	92.5992        	94.36827       	93.54932       	92.29785       	94.34416       	92.68583       	92.91504       	95.693         	91.73045       	94.08544       	94.91102       	92.56083       	95.41572       	92.83302       	92.07202       	93.84281       	91.6634        	93.07417       	91.818794      	91.723236      	95.03228       	92.49454       	93.85961       	95.01909       	92.93169       	94.70443       	92.75464       	94.01558       	93.48984       	93.540924      	94.77319       	93.754974      	94.04167       	94.636734      	94.06571       	93.66196       	94.8529        	94.97873       	93.10755       	94.481674      	94.51816       	92.98492       	93.69768       	94.17867       	92.65388       	93.72449       	94.84098       	93.20014       	93.373276      	95.248604      	94.65068       	93.88309       	95.05017       	94.03166       	93.44869       	94.377304      	93.92986       	94.22069       	94.82943       	94.51331       	94.12373       	93.8965        	94.58894       	94.15184       	93.228134      	94.232925      	94.33282       	91.16867       	94.0024        	94.24357       	91.873276      	93.93724       	95.182724      	92.137085      	92.53642       	95.29324       	93.02631       	92.39792       	95.126434      	93.514336      	91.71587       	94.51278       	95.18979       	93.018845      	94.0566        	95.79874       	95.18674       	93.41403       	92.916664      	
92.8745        	92.26705       	91.228195      	92.94728       	93.14562       	93.065994      	92.67744       	91.30664       	92.67442       	91.45977       	93.58223       	92.68628       	90.366455      	94.03667       	90.640976      	91.84106       	90.07567       	90.05678       	93.1761        	92.287704      	92.42524       	94.075554      	91.35623       	93.62585       	92.389175      	90.8162        	94.10622       	92.25806       	92.6191        	93.0231        	92.7349        	93.46676       	93.1683        	94.193115      	92.69974       	95.074776      	92.35424       	94.09818       	94.80899       	92.465034      	94.20715       	94.44798       	92.00644       	96.09014       	94.15735       	91.8576        	95.62591       	94.87768       	92.1244        	95.14482       	95.42217       	92.74135       	95.32446       	95.21059       	93.38555       	94.658455      	95.079834      	93.83449       	95.07994       	95.34032       	93.20736       	94.381966      	94.89098       	94.43863       	92.84331       	94.437546      	94.38343       	93.52093       	94.426926      	94.7887        	93.77843       	93.719955      	95.40919       	94.06786       	93.131454      	95.30527       	93.24614       	92.81616       	94.57535       	93.59981       	91.55616       	93.96862       	94.85779       	91.55221       	93.23845       	94.89282       	91.43703       	91.98567       	95.1724        	92.51883       	91.46305       	95.29589       	93.80001       	91.51465       	94.71038       	93.70782       	91.275345      	92.91003       	94.088776      	93.658165      	
90.59838       	93.13282       	94.15634       	91.95655       	90.74382       	93.09838       	93.01346       	93.18673       	93.01519       	92.21587       	94.20679       	92.936035      	91.94062       	93.69398       	93.09523       	94.011765      	93.70187       	91.33055       	92.058075      	91.91276       	92.60036       	94.109375      	92.19971       	92.798386      	93.49525       	93.28          	93.17061       	93.19897       	92.906944      	93.11461       	93.15826       	92.7019        	92.20306       	93.05484       	93.21472       	92.64331       	94.907364      	93.12883       	94.8055        	95.31247       	92.55964       	95.29732       	94.17318       	92.391266      	95.858086      	94.78323       	92.53333       	95.2629        	95.42013       	92.27398       	94.66585       	95.859856      	93.31641       	94.29794       	95.44446       	93.79814       	94.87747       	94.57762       	94.29288       	94.21662       	95.19328       	94.58564       	94.529335      	94.81574       	95.1039        	94.08702       	93.737305      	96.053185      	94.374794      	93.72388       	94.40911       	94.593254      	93.11446       	94.68893       	94.770134      	93.53657       	93.93749       	94.81706       	93.956795      	93.03923       	93.767685      	95.2258        	92.97301       	94.099         	94.305145      	93.736         	93.20763       	94.028         	94.06214       	92.51615       	94.542206      	93.92357       	92.78277       	94.61877       	94.89448       	92.807686      	93.57429       	94.57616       	94.64018       	94.61003       	
92.12159       	92.78844       	92.66857       	93.95239       	92.716324      	89.65465       	92.82944       	91.73897       	92.98302       	92.908066      	90.77022       	93.64526       	91.42016       	92.020355      	92.36586       	92.083145      	92.61772       	92.54204       	93.34358       	93.11724       	93.95781       	92.385376      	93.108696      	94.12207       	91.78281       	92.94411       	92.459236      	91.186104      	94.38852       	91.27033       	93.31752       	95.618324      	90.54803       	94.74993       	93.85706       	92.13151       	94.329384      	91.95961       	95.12479       	92.95921       	93.96351       	93.710526      	93.1899        	93.77714       	93.655685      	92.780846      	93.26827       	94.18287       	93.387276      	94.63205       	93.87171       	93.705765      	93.85338       	94.04603       	92.093185      	93.523895      	93.97596       	91.52848       	93.71197       	93.9311        	92.41285       	93.38941       	94.25233       	93.1453        	92.50951       	94.62735       	93.57057       	93.07199       	93.67459       	94.32221       	93.578316      	93.20179       	94.380325      	93.44103       	91.96094       	93.57726       	93.44282       	93.120804      	93.02099       	92.90998       	93.4766        	92.479744      	92.41147       	93.245026      	94.099655      	92.57033       	94.66406       	93.616035      	91.93827       	93.81064       	93.85896       	92.271675      	93.75532       	94.668144      	92.522575      	92.63826       	94.81618       	95.17217       	94.6021        	93.70069       	
93.01355       	92.14136       	91.67764       	91.590614      	93.44378       	93.91808       	92.40677       	91.92199       	92.146225      	93.0892        	93.91419       	93.793335      	92.62755       	94.05388       	94.04355       	92.70612       	93.53645       	93.43327       	93.33984       	93.59053       	92.25514       	94.80238       	93.49779       	93.50444       	93.60238       	93.705185      	93.34647       	92.68184       	93.798065      	93.30622       	93.48014       	93.18225       	92.62931       	92.6912        	92.74223       	92.098175      	94.39652       	93.26017       	92.98077       	95.04599       	93.12585       	94.141685      	95.32124       	92.92652       	94.317085      	94.22539       	93.414215      	94.69725       	94.67615       	94.73033       	93.78404       	94.9318        	93.85391       	94.33378       	93.82193       	94.16386       	95.81099       	93.520805      	93.95389       	94.76383       	94.15013       	93.27755       	94.76942       	94.40527       	93.11311       	94.45895       	95.164345      	93.707344      	93.96563       	94.56306       	94.73917       	94.92961       	94.03491       	94.70112       	94.867744      	93.46273       	93.77872       	95.227295      	93.959114      	93.29879       	94.775955      	94.827194      	92.93225       	94.39843       	94.674545      	93.45781       	93.63904       	94.78183       	93.866035      	93.70766       	94.430336      	94.40014       	93.65557       	94.1539        	95.25024       	94.10913       	93.52132       	93.583336      	94.010864      	94.21467       	
92.349884      	89.683556      	92.84268       	91.828156      	92.33759       	91.226006      	89.922676      	93.25455       	91.97975       	91.29994       	91.19128       	91.83574       	91.78221       	92.4131        	91.89638       	90.21263       	91.91386       	90.78659       	92.22883       	92.75195       	90.74833       	93.48292       	91.946495      	91.47352       	93.15262       	91.99409       	92.33434       	92.39748       	92.09527       	92.59118       	92.16884       	93.34872       	92.686676      	92.44999       	92.737625      	91.18055       	92.732025      	91.413124      	91.95051       	93.61838       	92.170006      	93.27686       	90.888596      	91.716255      	92.10693       	92.76067       	93.37748       	91.421295      	92.797615      	93.36553       	91.78587       	94.1914        	93.737144      	91.41626       	93.87817       	94.20143       	91.70275       	93.06238       	94.06578       	92.24878       	92.95367       	94.08312       	92.57397       	92.7728        	93.496635      	93.16374       	92.41418       	93.09582       	94.57905       	93.02843       	92.8235        	94.282715      	93.09717       	92.80433       	94.262695      	93.53563       	93.23428       	93.652336      	93.14555       	93.316124      	93.492035      	92.14816       	93.55024       	93.31468       	91.79411       	92.738075      	93.45596       	91.00513       	93.065605      	94.24116       	92.18743       	93.584076      	94.90641       	92.26988       	92.24852       	94.51136       	94.07511       	93.45093       	93.4549        	93.915886      	
89.62157       	92.699814      	92.92962       	92.59544       	90.64125       	93.769585      	93.81311       	92.56214       	91.40898       	90.96306       	93.27479       	93.48353       	93.4747        	92.68647       	93.80655       	94.501045      	92.82295       	92.035225      	92.67409       	91.97382       	92.42936       	92.7364        	92.14525       	92.53809       	92.84167       	93.12985       	92.136345      	93.05207       	93.69466       	91.709         	93.618164      	93.03175       	92.97576       	93.761314      	93.35829       	93.81489       	93.27837       	93.20849       	92.903244      	93.15845       	92.641846      	92.48901       	94.40622       	93.3068        	94.3367        	94.435005      	93.12755       	94.45307       	94.26738       	93.6895        	94.00411       	94.51977       	93.984215      	93.90565       	93.4954        	95.10402       	94.59905       	93.207         	94.48343       	94.63463       	92.7383        	93.8156        	95.08473       	93.37834       	93.59528       	95.048874      	94.202065      	93.67765       	95.18282       	94.62525       	93.315994      	94.70739       	94.37847       	93.27248       	93.55608       	93.86292       	94.22297       	93.19137       	93.43706       	94.23625       	93.590324      	93.05112       	94.31916       	93.50347       	93.15585       	93.61165       	94.33383       	94.02049       	93.16679       	94.595184      	94.222046      	93.5066        	94.3044        	94.76415       	92.9908        	92.69847       	94.47114       	95.69101       	94.96412       	94.135086      	
90.77432       	92.895004      	91.67117       	90.623055      	89.81243       	92.37239       	91.53493       	91.843025      	90.55533       	93.09675       	92.39882       	91.646774      	91.06983       	90.93267       	91.88935       	93.09546       	92.74199       	91.69172       	90.60998       	92.88757       	91.67292       	91.583176      	92.27927       	91.66041       	93.0308        	93.169266      	92.04642       	93.60107       	93.21154       	91.51512       	91.82468       	92.08658       	92.049         	92.5789        	91.412964      	91.96141       	92.357735      	92.390884      	92.760864      	92.938736      	92.57675       	92.57154       	93.43348       	92.174614      	94.3671        	92.65092       	92.27967       	94.50025       	93.58709       	92.578255      	93.946075      	93.9816        	93.07751       	93.70696       	93.44992       	93.69849       	93.74491       	93.30968       	94.07061       	94.355255      	92.65944       	94.77298       	94.07256       	91.97551       	93.8238        	94.92194       	92.53649       	93.99429       	95.137505      	93.24105       	93.012405      	95.153725      	93.639755      	92.850006      	93.68159       	93.08817       	92.159454      	93.682014      	93.16743       	92.4897        	93.41932       	92.63611       	91.906296      	94.27522       	93.99223       	92.87685       	92.87023       	93.344284      	92.990654      	93.67197       	93.3861        	93.64041       	93.40556       	93.48508       	93.720184      	94.27531       	92.9499        	92.33876       	92.65015       	94.8036        	
91.276245      	92.62196       	91.79862       	92.97384       	91.25853       	94.00845       	93.96647       	90.64811       	91.00174       	93.13688       	92.919624      	93.068695      	93.07626       	91.50762       	92.72022       	92.867714      	92.32279       	92.31449       	92.24493       	92.1965        	93.07324       	93.14791       	91.79732       	91.02132       	93.01708       	92.86378       	93.87784       	92.78299       	92.55008       	92.44906       	92.027885      	92.35295       	93.13551       	93.79973       	92.47419       	92.82445       	93.320816      	92.4702        	93.33241       	93.732666      	92.676445      	93.71132       	93.70844       	92.68596       	92.67624       	93.572754      	91.80141       	93.69805       	92.77356       	92.967606      	94.06074       	92.395454      	93.33035       	93.71647       	92.89567       	93.824356      	93.55096       	93.68421       	93.22114       	93.81217       	93.22264       	93.552246      	93.84142       	92.866035      	92.73756       	94.18616       	93.544846      	92.710175      	94.4164        	94.23459       	93.58387       	94.263115      	93.5214        	92.74814       	93.997574      	93.91593       	92.66629       	94.52902       	94.301605      	92.20827       	93.57804       	94.2616        	92.093735      	93.97149       	94.2623        	91.9495        	93.447945      	94.09021       	93.03093       	92.99367       	94.10452       	92.53414       	93.23314       	94.1552        	92.14306       	93.0463        	95.12837       	93.80216       	92.82129       	92.59956       	
92.470856      	89.39665       	93.95844       	92.20444       	91.85767       	90.946884      	93.52808       	93.16364       	92.02806       	91.39887       	92.75684       	93.43733       	93.58469       	91.341385      	90.79864       	92.979485      	92.55402       	93.80578       	92.28495       	91.789925      	93.48094       	92.937515      	93.252846      	91.94251       	93.393425      	92.85413       	92.69039       	93.65417       	91.79618       	94.045654      	92.343216      	92.524445      	92.83409       	93.3835        	93.82851       	93.01708       	93.734116      	92.99964       	93.21317       	93.90601       	92.98089       	94.35592       	92.82638       	94.46085       	93.9901        	92.88161       	94.86213       	94.34647       	93.70279       	94.34791       	94.52524       	94.0757        	93.60938       	94.634346      	93.9248        	93.078705      	94.60521       	93.89741       	93.85316       	94.34452       	93.386024      	93.190834      	93.74174       	93.54137       	93.961655      	93.91072       	93.79119       	94.173836      	92.92648       	93.17472       	94.55436       	93.39652       	93.253975      	94.19376       	93.60336       	92.72946       	93.6832        	93.994255      	93.14815       	93.83924       	94.23682       	93.6212        	93.07157       	93.97536       	94.26369       	93.6114        	92.70866       	94.382645      	93.43924       	93.220634      	94.58898       	94.025665      	93.49037       	94.08432       	93.480995      	93.30485       	93.03919       	93.90656       	93.967636      	94.05543       	
91.57333       	92.977974      	90.23021       	91.160484      	90.732346      	92.781166      	93.292816      	91.359375      	90.13026       	92.67253       	92.69799       	92.4961        	91.8788        	91.550186      	92.03373       	93.52523       	91.974205      	90.645355      	91.55281       	90.67921       	92.590195      	93.51286       	90.617676      	90.79614       	91.81991       	92.28437       	94.16795       	93.01988       	91.094635      	93.41764       	92.8639        	92.91623       	92.88961       	93.610794      	92.98937       	92.116035      	93.45336       	92.49962       	92.38653       	91.67028       	92.42195       	91.86979       	92.50008       	92.47926       	92.59898       	92.57793       	92.38964       	92.87265       	93.89464       	93.27495       	92.4139        	93.52931       	93.46541       	92.356514      	93.56493       	93.18898       	92.463326      	93.94873       	92.58049       	93.87983       	94.318855      	93.33847       	93.29536       	93.45146       	93.498566      	93.22592       	93.29909       	92.92513       	94.24126       	94.02325       	92.90915       	94.57484       	94.17667       	92.25047       	94.03259       	94.26457       	91.992         	93.07894       	94.40499       	92.46734       	92.79432       	94.15633       	93.578606      	92.6684        	94.278885      	93.48881       	92.66586       	93.84953       	93.456085      	93.56761       	93.57836       	93.84991       	93.71252       	93.834595      	93.753944      	94.09278       	93.7808        	93.68852       	93.79294       	93.87875       	
92.652985      	91.52975       	90.29305       	92.435555      	92.13402       	90.82979       	90.06375       	93.3293        	92.47306       	91.92489       	91.23363       	92.78047       	93.484695      	92.241585      	91.16035       	92.0359        	92.42684       	92.72977       	93.03842       	91.464615      	91.36296       	91.54627       	92.66867       	92.234726      	93.16246       	92.70311       	93.30617       	93.59462       	92.76217       	91.79648       	91.96606       	93.22515       	92.788666      	92.33754       	91.79975       	92.2529        	93.86901       	92.71847       	92.26526       	93.154         	92.225174      	92.36313       	92.633865      	92.753944      	92.725105      	93.194145      	93.35717       	92.989136      	93.63041       	93.31972       	92.04322       	94.457245      	92.85123       	92.2087        	94.40621       	93.484604      	92.87491       	93.27832       	92.84694       	92.61535       	94.26063       	93.16478       	93.82547       	93.490845      	93.374466      	93.90063       	93.558365      	94.249504      	93.77756       	93.01448       	94.7019        	93.831314      	93.22057       	94.84525       	93.13256       	93.4061        	94.59974       	93.725296      	93.53931       	94.20573       	93.01297       	93.23547       	94.31067       	93.59933       	93.35548       	93.16066       	93.18059       	92.89049       	92.6191        	92.81876       	93.08293       	93.092255      	92.54461       	93.5081        	94.03544       	93.11099       	92.68419       	93.731606      	94.21845       	94.43786       	
90.87361       	92.397         	92.74632       	92.215866      	89.951225      	93.65915       	92.857574      	92.23821       	91.76175       	90.94059       	93.89464       	94.369675      	93.14727       	90.79155       	91.78177       	91.14324       	92.96049       	92.92663       	90.597534      	90.4289        	91.80713       	92.87397       	93.148476      	91.19093       	91.45618       	92.72942       	93.04094       	93.61288       	92.741104      	91.80905       	93.52581       	93.03535       	92.21733       	93.351395      	92.73877       	92.17486       	92.772514      	93.17137       	93.29785       	92.87358       	92.99107       	93.327896      	94.2515        	93.973015      	93.1752        	94.67702       	94.37141       	93.47172       	93.58808       	94.16772       	93.17967       	93.51895       	94.200356      	94.06574       	93.313545      	93.595085      	93.77023       	93.48198       	93.973625      	94.47103       	93.42597       	94.1316        	94.24768       	93.34476       	93.80185       	94.11548       	93.38278       	94.26617       	94.70372       	94.56657       	94.01215       	95.21784       	95.356636      	93.44865       	94.826584      	93.94722       	93.17851       	94.7426        	94.19404       	92.95806       	94.3717        	93.948975      	92.83322       	94.05324       	94.10179       	92.9095        	93.70653       	94.45653       	93.99792       	93.52674       	94.345535      	93.61095       	93.36948       	94.668106      	93.81677       	93.39298       	94.247696      	94.08116       	93.974815      	93.91145       	
89.582146      	92.654335      	92.08204       	91.85428       	88.81943       	94.328445      	91.810295      	92.46073       	92.89055       	90.05174       	93.74865       	92.46502       	91.42091       	92.237724      	90.599976      	92.72706       	92.305534      	92.493706      	91.517136      	90.12448       	91.77687       	91.60222       	92.4133        	91.49657       	89.75557       	92.870285      	91.42175       	91.19886       	91.490616      	92.272514      	93.0944        	93.14312       	92.16345       	93.46457       	93.6577        	92.37438       	91.64078       	92.64383       	91.75322       	91.344574      	92.600624      	91.319756      	93.029305      	93.65451       	92.78724       	93.0664        	93.33723       	92.429115      	93.31832       	93.60603       	93.55835       	92.79419       	93.36927       	94.17231       	93.22442       	93.79678       	93.97411       	93.29841       	93.347         	93.3682        	92.705124      	93.73986       	93.067764      	93.10751       	93.03214       	92.78455       	94.073494      	93.32943       	92.318         	93.880615      	92.906654      	91.717514      	93.94952       	92.46655       	91.847946      	94.1414        	92.23194       	92.506805      	93.649284      	92.032585      	92.5005        	92.581955      	92.60414       	93.73673       	92.1475        	94.28671       	93.609795      	92.86058       	95.13358       	94.91922       	92.62166       	93.726204      	94.405556      	92.41661       	93.52139       	93.93736       	93.57331       	93.78425       	94.67589       	94.82593       	
92.72265       	92.54024       	90.32468       	89.977776      	92.21403       	92.173256      	91.47994       	90.778244      	92.752945      	93.05858       	92.88482       	91.21586       	90.95506       	91.49504       	91.737595      	93.16061       	90.726685      	89.62618       	91.37835       	91.21764       	92.87184       	91.72075       	89.98091       	91.821846      	91.49016       	92.56351       	92.44284       	91.0876        	92.728165      	91.90915       	91.94632       	92.381454      	92.82003       	93.38562       	92.675285      	91.299324      	93.234955      	92.26857       	92.7307        	93.105316      	92.936714      	93.58766       	93.43145       	93.22705       	93.91112       	93.452866      	93.34289       	93.862755      	93.60747       	93.4506        	94.30158       	93.23111       	93.117256      	94.56041       	93.14737       	92.9334        	93.60579       	92.74865       	93.27939       	93.55738       	92.70102       	92.764404      	93.46784       	93.12324       	92.92762       	93.86028       	93.4215        	93.51978       	92.91017       	92.91613       	93.707405      	92.491425      	93.45947       	93.528114      	92.67188       	92.95878       	93.424995      	92.683525      	92.75585       	93.22794       	92.16162       	92.986176      	93.79827       	92.91515       	93.92005       	92.990845      	93.870636      	93.71343       	93.70337       	93.54329       	93.73885       	92.62032       	92.683426      	94.553055      	93.36685       	92.290405      	92.919525      	94.151474      	95.08745       	94.90644       	
89.8997        	92.12831       	91.22389       	90.75865       	90.01261       	92.3882        	92.71196       	92.61955       	90.60482       	90.51941       	92.65841       	91.86685       	92.13097       	91.698524      	94.142914      	93.99178       	92.14162       	91.18458       	92.5172        	90.71619       	93.196686      	92.39522       	91.82145       	91.49511       	93.19844       	93.48399       	92.046074      	91.10815       	91.92845       	92.1364        	94.252235      	93.500206      	91.30527       	94.79483       	93.14772       	93.39769       	93.96092       	93.94376       	94.16023       	93.958725      	93.32736       	92.74501       	92.81531       	93.642715      	91.913345      	94.10576       	91.85999       	93.73535       	92.97009       	92.58078       	94.60359       	93.22946       	93.86785       	94.00334       	93.44925       	93.672844      	92.62484       	94.29648       	93.33496       	93.5288        	94.85546       	92.94136       	94.23779       	93.47679       	92.15162       	93.81778       	94.09867       	92.83126       	94.638664      	93.30758       	93.61978       	94.04863       	93.152336      	94.1152        	93.91879       	93.095345      	94.71455       	93.39189       	92.70821       	94.33402       	93.77425       	93.14013       	94.45366       	94.11601       	93.49251       	93.61299       	93.912155      	93.1385        	94.155624      	94.28303       	93.788055      	93.10086       	93.98015       	93.67916       	92.810905      	94.11641       	94.926476      	94.64448       	94.110565      	94.5335        	
91.675095      	93.95678       	93.89412       	91.95698       	90.89002       	94.5218        	92.97761       	93.14129       	92.22388       	90.9226        	92.68504       	93.32646       	91.47438       	89.9227        	90.24175       	91.49791       	92.150375      	92.923935      	91.32959       	90.62641       	92.71948       	92.63667       	92.27924       	92.471405      	92.09579       	93.3328        	93.07975       	92.51616       	91.63901       	94.29715       	93.2032        	93.558395      	93.485344      	92.70407       	93.70935       	93.816536      	93.176216      	92.68967       	93.59344       	93.70972       	92.74878       	94.232025      	93.8134        	93.38366       	94.97962       	93.37914       	92.985886      	93.87869       	93.54609       	94.056366      	94.13325       	94.88311       	93.13915       	94.688965      	93.633545      	92.40571       	95.057526      	93.77482       	92.909615      	95.43018       	93.06083       	94.4485        	94.51796       	93.73616       	94.77669       	94.2561        	94.816315      	94.655594      	94.69202       	95.21664       	94.290764      	94.576         	95.09203       	94.06717       	93.87666       	94.90877       	93.429855      	94.47199       	94.40609       	94.044014      	94.873215      	93.60268       	94.77201       	94.19245       	93.14811       	93.518745      	93.71057       	92.629745      	93.51513       	93.84559       	93.408005      	93.89052       	93.41765       	93.82762       	93.64042       	94.11158       	95.02961       	95.11691       	94.66846       	93.99686       	
91.47586       	93.28118       	92.954994      	91.770996      	90.27392       	93.54712       	93.37153       	92.61546       	92.242386      	90.41707       	94.57715       	92.723755      	91.061165      	92.522705      	92.57315       	93.85401       	93.26904       	90.98183       	90.94469       	92.76962       	92.87336       	92.00118       	90.92902       	91.29357       	91.58675       	93.416534      	92.49427       	90.01545       	92.53444       	92.03619       	92.6293        	93.32696       	90.78189       	93.87486       	92.94085       	92.28915       	91.81929       	92.6781        	92.22257       	92.28244       	92.41197       	93.009995      	93.208405      	92.96864       	92.885735      	94.12          	94.08351       	93.645966      	94.62699       	93.90199       	94.18562       	93.62446       	93.70235       	93.74228       	94.07838       	93.30753       	92.75241       	93.56618       	92.808105      	93.62196       	94.305435      	92.53304       	93.392944      	94.87508       	93.14018       	93.30002       	94.41796       	93.3189        	93.3226        	94.74653       	93.42164       	92.91182       	93.92221       	93.90195       	93.28726       	93.93525       	93.568         	93.136505      	93.10727       	93.707794      	93.65935       	93.9563        	94.0882        	92.95011       	93.50245       	93.46758       	92.23347       	93.10091       	93.09761       	92.44154       	93.294426      	93.276726      	93.44413       	93.25801       	94.05153       	95.21907       	93.71228       	93.922516      	94.70309       	95.18209       	
93.648224      	90.90923       	93.08968       	93.0583        	93.84759       	91.891106      	93.26714       	92.42064       	91.96141       	91.22142       	90.52571       	92.06695       	91.76526       	91.58133       	91.347786      	91.52988       	92.45843       	92.69862       	90.45619       	90.8602        	92.06685       	91.99081       	92.31158       	91.425835      	92.487785      	92.50404       	92.40556       	90.90553       	90.22803       	92.47688       	91.6479        	92.61519       	91.86376       	90.14914       	93.02567       	92.11852       	92.183586      	92.15902       	92.03625       	91.83907       	92.16869       	91.92407       	93.03455       	93.16085       	92.27404       	93.39348       	93.11161       	92.629745      	93.57338       	92.99863       	93.42216       	93.51822       	92.96985       	92.892815      	93.67778       	92.28275       	93.01352       	93.5151        	92.00017       	93.39009       	93.287315      	91.81029       	94.641235      	93.316635      	91.0878        	93.545204      	93.282074      	91.625694      	93.57528       	92.67691       	91.77475       	93.232864      	92.31847       	91.52479       	93.82995       	90.902596      	93.819626      	91.5665        	92.744125      	94.187004      	91.33033       	93.488525      	93.80816       	91.35322       	94.57144       	92.16731       	92.882095      	94.26603       	92.051216      	94.55722       	94.46536       	92.20243       	93.34834       	94.66401       	94.13097       	94.901924      	94.84958       	94.32808       	94.56943       	94.30404       	
93.86325       	93.817924      	91.42147       	93.84144       	93.592094      	93.73117       	91.81407       	94.627335      	92.96474       	91.71111       	92.237885      	91.564316      	92.31799       	92.44854       	90.56725       	92.62115       	92.028496      	91.91288       	91.83758       	91.512115      	93.060455      	93.37216       	92.463135      	92.206635      	94.53296       	94.60786       	92.57707       	91.6818        	92.160736      	92.47667       	92.91553       	92.68243       	91.34509       	94.03205       	93.04289       	92.36149       	91.87332       	91.441895      	93.57867       	92.40726       	91.96683       	92.54459       	92.87582       	94.1778        	93.29449       	94.52597       	94.49787       	94.4148        	95.64715       	94.27584       	94.24882       	95.08088       	92.27702       	94.70792       	93.237274      	93.691605      	93.50314       	92.68645       	93.9571        	92.502884      	94.044174      	92.44064       	93.78858       	94.10734       	92.9073        	92.72229       	94.09352       	93.22897       	92.71022       	93.67013       	93.465836      	93.139534      	93.57207       	93.36906       	93.59775       	93.20833       	94.08565       	93.61911       	93.45367       	94.40718       	93.62361       	93.48103       	94.338974      	93.93294       	94.24372       	94.68448       	93.90065       	93.58724       	94.67567       	93.300285      	93.58808       	94.28832       	93.94019       	93.59142       	94.19971       	94.71129       	94.73856       	94.76209       	94.69276       	94.68868       	
91.68643       	91.26126       	93.334526      	92.49783       	91.65772       	93.179115      	93.035576      	92.00114       	91.10542       	93.438965      	91.51661       	92.68819       	91.810356      	92.1558        	93.27724       	91.523895      	93.303474      	93.55827       	92.38709       	92.22962       	92.77128       	92.767334      	93.77032       	93.42683       	91.45297       	93.91317       	93.17935       	92.03925       	92.05537       	93.23124       	92.72569       	93.178154      	93.30542       	91.95562       	93.91314       	93.68712       	92.47076       	92.00902       	92.82776       	93.09749       	93.69233       	92.11883       	93.64787       	93.30126       	92.51188       	92.21739       	93.15508       	91.978584      	93.69196       	92.0654        	92.41016       	93.11657       	93.00363       	93.09846       	93.37898       	93.81033       	93.43083       	94.51001       	93.40153       	93.06938       	94.257095      	92.88951       	94.22163       	94.31418       	92.577156      	94.26093       	94.49223       	93.01895       	93.59018       	94.50036       	92.74596       	93.969536      	94.41566       	94.035484      	94.2083        	93.86646       	93.83934       	92.686195      	93.598114      	93.191414      	93.363945      	94.69137       	92.00639       	95.17674       	92.55827       	93.53966       	94.32755       	92.15856       	95.025185      	93.70043       	93.11685       	95.06977       	94.06898       	93.474495      	94.90714       	94.03856       	94.54373       	95.03304       	95.56496       	95.25766       	
92.79276       	91.48528       	93.547646      	92.551315      	90.6242        	92.77772       	91.333496      	90.79173       	91.50485       	90.21375       	93.26073       	90.89986       	92.54343       	93.918625      	90.20817       	94.41473       	91.560425      	91.3344        	93.20851       	91.01617       	94.14872       	92.17003       	90.849335      	91.55592       	92.62826       	94.24138       	92.1208        	89.345215      	92.0244        	91.36247       	93.67122       	92.73066       	88.86544       	93.892426      	90.79508       	91.96477       	93.25988       	93.00764       	93.70727       	91.890945      	91.484116      	92.81212       	92.45657       	92.457466      	91.69101       	94.0545        	92.50823       	91.759186      	94.234665      	92.17033       	92.97299       	93.064095      	92.077255      	92.52377       	92.10697       	92.93731       	92.95785       	92.257675      	92.94178       	93.26582       	93.29102       	93.89531       	92.76954       	92.99991       	93.78187       	92.630875      	92.93355       	93.76673       	92.61591       	92.81526       	93.618126      	92.29029       	92.34329       	93.204956      	92.051926      	92.33065       	91.973526      	92.52801       	93.08499       	93.3745        	92.87599       	93.94319       	94.28635       	92.430595      	94.31401       	91.70755       	94.45702       	93.96591       	92.6079        	94.37701       	92.55024       	93.46481       	93.59087       	92.66757       	94.17855       	93.73416       	93.79077       	94.41784       	95.32971       	95.910904      	
92.5254        	92.99018       	92.715836      	92.3476        	94.04003       	92.22982       	92.42471       	93.65206       	91.25659       	95.121895      	91.06276       	92.05067       	91.86169       	91.66179       	94.551765      	92.63874       	93.787         	93.88809       	91.85071       	94.58008       	93.70403       	92.80428       	93.56688       	91.63403       	93.54965       	93.108925      	93.09858       	92.34778       	90.820404      	94.079926      	91.429924      	93.33491       	92.33627       	90.40824       	94.013466      	92.76622       	91.885025      	91.80556       	94.2218        	93.154945      	92.59172       	93.0813        	92.7546        	95.04277       	95.14024       	91.19803       	95.06319       	92.48366       	92.48577       	94.56696       	92.281815      	93.94905       	92.42453       	92.97102       	93.18067       	93.385445      	93.52216       	94.5836        	93.81456       	93.667114      	93.79845       	92.948135      	93.96326       	93.622154      	92.39324       	93.67309       	92.41246       	93.771126      	93.95633       	92.54385       	94.48738       	93.11479       	91.9797        	94.41613       	93.14011       	93.69157       	94.82867       	93.15694       	94.81833       	93.96583       	92.437546      	94.77431       	93.35379       	93.2205        	93.941864      	93.29418       	93.74556       	93.25379       	93.386566      	94.0487        	93.76118       	94.56495       	95.00281       	94.28544       	94.4946        	95.245674      	95.02107       	94.63439       	96.16312       	97.27855       	
92.956894      	91.782875      	94.03593       	92.41793       	93.64563       	94.22679       	93.17126       	94.556274      	92.020546      	94.61225       	93.93781       	92.09701       	92.939766      	91.74798       	92.86232       	92.3701        	93.04992       	93.97669       	91.51049       	94.889         	92.73331       	91.07681       	92.404045      	91.544106      	93.05086       	94.687294      	91.64786       	90.500984      	92.71078       	93.35498       	94.87049       	92.26712       	91.10493       	93.434975      	92.889275      	92.5222        	91.69294       	93.48614       	93.56103       	95.03783       	92.625175      	91.56233       	94.117676      	93.04777       	93.66969       	94.26738       	94.0534        	95.805595      	93.42846       	94.72974       	94.333015      	91.422134      	94.16914       	92.3903        	91.0067        	94.0456        	92.46955       	92.28491       	94.45942       	92.51782       	93.56591       	94.01817       	93.353645      	94.35957       	93.897865      	92.07385       	93.79671       	93.04481       	92.21493       	94.463486      	92.97767       	92.448         	94.00672       	92.775406      	93.76228       	92.99015       	93.45424       	94.420845      	91.86971       	92.939285      	94.56151       	93.292816      	94.43596       	94.30366       	93.951256      	95.02918       	92.71537       	94.25143       	93.59919       	92.397705      	93.71768       	93.122734      	94.156425      	94.02625       	93.59029       	93.58431       	93.49541       	93.95853       	94.400215      	93.84992       	
92.875084      	92.01053       	94.23303       	93.26275       	91.31505       	94.09806       	92.53533       	92.318306      	93.52292       	91.10441       	94.60632       	92.12536       	92.18476       	93.5927        	91.7806        	92.70418       	92.362114      	92.11316       	93.526764      	92.58711       	91.82598       	94.07472       	92.51769       	92.27763       	91.80146       	91.58278       	92.58634       	93.94671       	93.61513       	91.12686       	91.632935      	92.33203       	93.021614      	94.53038       	92.24234       	90.2961        	93.8393        	93.14865       	94.56972       	92.97325       	95.46353       	94.96227       	93.15205       	92.18127       	94.0945        	93.65132       	94.35418       	94.14143       	93.97657       	95.00047       	93.3888        	94.58243       	94.23235       	93.36344       	93.898994      	94.08876       	93.50279       	94.291245      	94.73772       	93.19691       	95.00682       	94.814766      	92.160736      	96.07411       	94.213486      	92.216255      	94.49024       	92.12204       	93.64489       	93.64071       	92.16622       	93.85584       	93.14543       	93.07557       	95.15471       	93.573006      	94.6446        	93.59717       	92.44457       	93.33805       	93.57614       	93.43019       	93.10495       	94.40827       	93.5384        	93.07247       	94.4274        	92.77416       	94.27349       	92.22657       	92.90865       	96.10224       	91.906784      	95.14019       	95.76556       	93.373184      	95.46862       	95.92619       	94.75041       	94.0079        	
93.06768       	95.66729       	92.06265       	94.03601       	94.97017       	91.81713       	94.97285       	93.24516       	94.56555       	93.98352       	93.748886      	94.77679       	94.76384       	94.449165      	94.00414       	94.96239       	95.01648       	91.88239       	91.875275      	91.72714       	92.91276       	94.95058       	92.15963       	90.190445      	92.52776       	92.44669       	94.60585       	92.97836       	90.7345        	93.96781       	93.01681       	93.203766      	92.923386      	91.15723       	94.49236       	93.920944      	91.849335      	91.67363       	92.60636       	92.42076       	95.06128       	92.715775      	90.26592       	94.311325      	91.88463       	93.99487       	93.68454       	93.95125       	93.88452       	92.11042       	94.80997       	93.967865      	93.07966       	92.8129        	93.34561       	94.448456      	92.92287       	94.892044      	93.89808       	94.10533       	95.186844      	91.67813       	92.11629       	93.94032       	91.445175      	93.88795       	91.51485       	93.2059        	95.28648       	92.810776      	95.88028       	92.55376       	90.49183       	94.12355       	92.43751       	93.49763       	95.26541       	94.09038       	96.27922       	93.35067       	92.24815       	93.4418        	93.67433       	95.081024      	93.65703       	95.97679       	93.658066      	92.723274      	92.7539        	92.655075      	96.96437       	95.763504      	95.742226      	97.09157       	92.59718       	96.71385       	95.24116       	92.14251       	91.11691       	93.07556       	
92.34956       	92.16473       	92.33929       	92.646         	92.43449       	91.97347       	92.84898       	93.34059       	91.559586      	93.05382       	93.16444       	90.884895      	93.73083       	92.79031       	90.74633       	93.061356      	91.742096      	91.25799       	93.50004       	92.17671       	93.87145       	92.01425       	89.6453        	91.59835       	91.16753       	92.075424      	93.446846      	91.70317       	89.9922        	91.2389        	92.58631       	92.95112       	91.792305      	91.12965       	90.130615      	93.90532       	92.62746       	91.2516        	91.19007       	92.15463       	93.503555      	92.62127       	91.395195      	94.69374       	92.08359       	92.3814        	93.94736       	92.019         	94.72591       	91.80785       	93.90768       	93.649086      	90.468834      	92.31067       	91.977425      	91.428505      	93.29825       	91.63455       	93.718216      	94.57366       	92.62904       	95.65813       	93.46251       	89.35751       	94.51754       	91.287125      	92.80656       	92.1392        	94.05636       	94.649055      	91.30828       	91.150406      	93.00064       	92.21769       	92.809944      	93.34655       	93.42416       	93.96292       	93.69383       	93.312996      	93.689644      	94.00473       	91.766884      	94.10186       	92.01238       	92.36548       	95.59872       	93.31292       	95.56831       	94.25489       	91.13704       	93.07177       	91.92833       	94.11175       	95.53205       	93.117546      	94.92716       	95.31233       	94.61937       	93.881485      	
92.49728       	93.87291       	92.592094      	91.2248        	94.1397        	91.83837       	93.40075       	92.564644      	92.93489       	93.573296      	92.440155      	94.39767       	93.55496       	92.63907       	94.25703       	91.73233       	93.81322       	93.749016      	90.236404      	94.737656      	91.47966       	91.2993        	92.30608       	89.76928       	94.18392       	93.05835       	91.80303       	92.90193       	90.50434       	88.2776        	89.062904      	93.59368       	93.054756      	90.77994       	90.7539        	92.08244       	93.93017       	92.69573       	90.72518       	90.1807        	93.375114      	92.44145       	92.42026       	91.41643       	93.14148       	92.71961       	92.89656       	92.08468       	93.615555      	94.09986       	91.12281       	94.36331       	92.62716       	91.57527       	94.0591        	91.60281       	93.281944      	93.807526      	93.72299       	93.93704       	91.928925      	91.49842       	92.25768       	92.62596       	92.60262       	91.44902       	93.82716       	92.45373       	92.26261       	93.23973       	93.7794        	95.00186       	92.69366       	91.124054      	93.57274       	91.517944      	94.07019       	94.02295       	91.03569       	94.54296       	92.593216      	92.921646      	93.84496       	93.5547        	94.24585       	93.993256      	93.60433       	93.25293       	95.146416      	94.83871       	93.40934       	94.273636      	92.904305      	95.11732       	96.594185      	95.04355       	95.31564       	95.105034      	95.089195      	94.382706      	
94.90221       	93.1396        	94.62199       	94.468666      	93.26928       	94.70434       	94.18565       	92.81512       	93.92553       	93.41916       	93.113396      	94.51153       	92.98817       	92.831         	94.73189       	91.92334       	94.71632       	94.437675      	90.31812       	91.10208       	91.792         	93.47661       	95.17383       	90.90947       	89.674164      	93.5096        	92.3847        	95.02678       	92.36858       	89.000534      	89.604935      	93.62131       	94.882095      	93.47385       	91.572495      	91.13602       	93.74586       	93.97546       	94.56269       	93.47034       	92.4024        	95.775955      	95.111374      	92.772255      	93.13702       	93.3036        	95.35951       	95.78837       	92.69889       	95.71596       	94.04465       	93.036285      	93.41035       	93.49899       	93.13177       	93.848145      	94.60762       	94.99043       	93.136055      	92.63619       	95.01324       	94.67116       	92.63196       	91.23433       	92.09052       	92.3871        	93.43365       	92.88379       	90.169266      	94.20273       	93.00324       	92.31127       	92.76221       	93.36417       	94.040855      	93.78955       	92.42243       	91.47299       	93.975876      	92.98954       	93.05748       	93.977005      	94.27136       	95.39743       	94.16142       	93.170204      	94.05822       	93.80123       	94.32252       	94.58965       	93.16658       	94.90843       	94.09594       	93.91507       	93.95846       	92.85547       	92.66166       	93.23995       	94.550865      	94.95723       	
90.74053       	91.88297       	89.89381       	94.37059       	92.84909       	90.596466      	94.7601        	91.72763       	92.11027       	95.118546      	93.09337       	93.3784        	93.90791       	92.43316       	93.15816       	92.9928        	93.38839       	94.282104      	91.779755      	93.744156      	92.95219       	91.61553       	91.83452       	91.7172        	89.92433       	94.07659       	92.78215       	92.209755      	91.14318       	90.14408       	89.624504      	93.54884       	93.73253       	91.14136       	90.38913       	91.48275       	92.92573       	94.28585       	91.21187       	89.595634      	93.56419       	92.76102       	93.068184      	92.59863       	93.57674       	93.653694      	93.16261       	91.68019       	94.57034       	93.457306      	91.93283       	92.894325      	93.19491       	93.85662       	94.62812       	92.42189       	96.13295       	94.629875      	91.945915      	93.826546      	93.05122       	94.725784      	93.90742       	92.10168       	94.816124      	94.47267       	93.99068       	92.828865      	92.44622       	93.3589        	93.93412       	93.998055      	91.90498       	95.11327       	93.595856      	93.16963       	94.15548       	92.970215      	94.89296       	94.93228       	91.88754       	92.53619       	94.36462       	94.95684       	95.141525      	92.96861       	93.23465       	94.106735      	94.99951       	93.97875       	93.206535      	94.610794      	94.684555      	95.69222       	95.00557       	95.6217        	96.15356       	95.65062       	95.36286       	95.02804       	
93.30938       	90.75001       	92.4104        	93.81425       	91.157906      	92.8147        	94.07973       	90.54219       	93.37758       	93.93269       	91.2529        	95.08687       	92.250786      	92.23907       	93.917244      	92.74173       	93.827675      	93.9015        	94.14649       	92.82014       	93.06719       	92.529434      	90.09816       	95.42917       	92.72785       	93.12544       	94.50053       	91.06552       	89.361115      	94.271255      	92.33668       	94.51789       	92.70915       	88.3615        	94.349045      	91.68002       	92.27006       	92.21387       	94.83078       	94.80732       	92.88078       	91.940346      	91.72273       	95.62718       	93.63423       	92.46261       	93.27858       	92.849884      	94.78833       	93.4843        	95.834015      	95.71049       	92.13285       	92.181656      	92.658844      	92.798164      	96.094315      	93.08711       	96.29529       	94.88931       	90.82911       	93.17688       	93.722725      	94.10323       	94.66586       	91.782646      	91.88831       	93.71607       	94.03617       	93.103325      	92.3754        	91.28276       	94.56212       	94.05496       	92.956924      	92.49162       	92.56805       	93.80517       	94.96551       	93.09954       	91.12979       	93.54557       	94.48885       	94.22937       	93.99721       	93.45094       	94.846565      	95.334526      	94.71144       	92.58021       	95.528435      	93.89542       	94.38628       	96.102005      	93.251434      	95.715324      	95.48709       	93.55727       	92.79682       	92.80656       	
92.38276       	92.21966       	92.225426      	94.43209       	92.56946       	93.409744      	93.69401       	93.40572       	92.77804       	93.227585      	93.64868       	93.58536       	93.43928       	93.81274       	94.37315       	92.91715       	93.82352       	93.65202       	91.6261        	92.39493       	92.796646      	93.903145      	94.64481       	92.935234      	91.38881       	91.381905      	93.09825       	93.91442       	92.57362       	91.60947       	90.070404      	93.790764      	92.145294      	91.61346       	91.72478       	89.805626      	94.93103       	92.88684       	90.635605      	89.696724      	94.239395      	93.302536      	93.37009       	93.18471       	94.249756      	94.71739       	92.15163       	91.604324      	94.028564      	91.857574      	92.61317       	93.14326       	93.9966        	94.68214       	91.849335      	96.14737       	94.180214      	91.94666       	93.223495      	92.71929       	93.89904       	93.65446       	91.85224       	91.57479       	92.793655      	93.81628       	92.94349       	90.51966       	90.43888       	92.41368       	93.0719        	93.68568       	90.44921       	89.6423        	93.09204       	92.29121       	94.26232       	92.82239       	94.809135      	94.59764       	91.80751       	93.57337       	93.750374      	94.329216      	94.45082       	92.78055       	92.265945      	93.70045       	92.784615      	94.6444        	93.894035      	92.62537       	93.64723       	93.839005      	94.79761       	94.33019       	94.28044       	94.73955       	94.21553       	93.845695      	
94.15596       	92.09123       	94.5043        	92.100876      	92.9255        	93.75031       	92.64457       	93.552246      	93.23046       	92.34462       	93.84774       	92.99391       	94.48781       	92.80277       	93.27219       	95.15612       	91.724686      	95.104324      	93.70886       	90.66631       	93.999565      	93.584465      	88.656075      	95.14411       	91.422966      	93.33036       	93.67111       	89.73079       	94.41979       	91.95555       	91.341324      	91.35802       	89.81566       	92.52046       	91.36422       	90.7897        	88.395065      	93.04881       	91.7552        	91.45764       	91.36321       	94.60927       	95.96809       	92.562065      	90.02376       	93.015434      	90.939095      	94.107414      	94.77319       	94.681656      	96.352486      	90.897896      	90.58517       	92.903885      	91.88322       	93.319984      	91.87348       	94.12548       	94.12861       	92.57354       	91.71674       	94.15268       	94.34897       	91.75636       	90.95134       	91.68139       	92.68611       	93.50042       	91.736984      	89.63588       	92.58174       	91.50331       	93.127815      	92.49711       	89.80278       	93.29035       	92.138725      	90.80864       	91.01073       	92.552925      	92.67085       	93.38341       	91.82185       	89.9093        	93.42249       	92.416         	93.957855      	94.41272       	91.8763        	95.818985      	92.10257       	92.65882       	96.064125      	93.04          	96.559494      	96.76075       	93.70352       	92.354996      	93.108154      	94.83671       	
92.03991       	93.40423       	91.788414      	94.19508       	91.80992       	91.934364      	93.95919       	91.37564       	93.91968       	94.23209       	91.74462       	94.87606       	91.21208       	92.78746       	93.845695      	89.628944      	95.083466      	90.47692       	92.89823       	95.54943       	89.43916       	95.676765      	90.47289       	92.37224       	95.70981       	89.1377        	87.25871       	91.58593       	91.22265       	95.18544       	91.87096       	87.77235       	92.78703       	89.42155       	91.69115       	91.105095      	93.27812       	92.58373       	89.67798       	88.047066      	93.788536      	92.04542       	93.47501       	91.94111       	94.3721        	94.37418       	90.907196      	94.34335       	93.30466       	91.808685      	93.19467       	92.475296      	93.944016      	94.411         	91.24288       	95.301506      	93.50574       	91.572525      	92.23233       	92.4334        	93.80827       	92.25514       	90.971924      	89.44267       	92.79945       	90.90723       	92.67992       	92.01794       	95.68605       	94.802666      	89.911125      	90.99708       	93.99506       	93.42721       	96.95222       	90.627846      	88.254585      	91.5828        	90.82881       	95.399506      	92.4441        	87.8731        	94.23549       	91.300385      	96.94967       	95.39499       	89.02039       	94.9734        	90.74482       	95.979385      	95.91316       	91.17651       	95.67981       	91.36454       	92.96153       	96.10747       	95.48485       	95.5914        	95.81353       	95.86174       	
94.308174      	91.654495      	94.054085      	93.68412       	92.712204      	93.59305       	94.767456      	93.38942       	93.998505      	94.34478       	93.43444       	93.28328       	94.894684      	94.04555       	94.46892       	94.32759       	93.53862       	94.46896       	93.41468       	91.35189       	93.40369       	93.52298       	95.07905       	95.75861       	92.482704      	92.39393       	92.416916      	94.21643       	94.0391        	94.241615      	91.343         	89.75187       	93.221695      	91.14284       	90.90585       	90.22395       	93.32613       	93.8893        	91.48336       	89.2314        	94.188         	92.598724      	93.430305      	92.073296      	94.89893       	94.6642        	91.847534      	91.669075      	93.613976      	93.14708       	93.161865      	93.12143       	92.92607       	93.2658        	92.812         	94.40548       	95.13993       	93.562546      	91.40494       	91.8362        	92.42306       	93.99659       	94.78625       	89.91981       	89.97611       	91.25891       	90.59986       	94.549385      	90.13642       	95.524216      	92.0879        	89.69772       	92.532715      	90.99788       	94.149185      	92.75914       	89.87615       	91.86589       	92.87938       	94.07767       	92.7014        	91.83548       	90.88496       	93.47684       	93.459366      	94.02237       	93.48804       	92.68725       	94.77388       	94.55786       	94.19219       	94.62598       	94.335495      	95.0743        	96.077866      	94.58382       	93.48153       	94.47609       	95.68319       	96.206856      	
92.141884      	96.53979       	92.739914      	91.157845      	95.91283       	92.761955      	92.24785       	95.19698       	92.7001        	92.82491       	95.68497       	92.09482       	96.158066      	94.017334      	91.9049        	95.627         	92.35893       	92.32266       	93.58357       	93.62544       	95.28997       	93.39131       	92.587395      	92.900276      	90.72799       	89.58141       	92.81959       	94.34416       	94.184906      	90.4261        	90.39127       	92.20552       	91.725395      	94.19261       	89.9758        	95.85894       	93.01522       	90.32931       	92.44083       	93.46858       	94.392105      	94.55469       	89.73204       	93.90942       	92.079475      	92.34382       	93.65215       	92.69884       	94.59843       	93.14322       	91.73629       	94.65175       	93.156265      	91.10948       	94.21577       	92.04387       	93.12636       	94.21556       	94.82271       	96.1864        	92.68827       	90.59295       	93.44949       	92.64685       	95.88211       	93.809814      	88.94283       	90.93917       	91.66743       	92.727486      	93.93176       	89.9596        	97.06322       	93.297066      	91.38489       	94.529465      	91.96939       	96.41093       	93.6508        	91.343124      	93.55733       	92.74433       	95.89839       	94.96961       	92.71391       	93.45444       	94.815765      	95.30449       	95.035576      	94.44268       	94.50525       	95.63978       	95.41329       	93.299774      	95.137985      	96.23642       	95.11222       	92.89224       	94.04998       	97.07336       	
93.55212       	91.07271       	93.79416       	93.192375      	91.68473       	94.2964        	93.8339        	92.22616       	94.86903       	94.09496       	92.692764      	94.55633       	93.12127       	92.387436      	94.898735      	91.9392        	93.29864       	92.848526      	92.20091       	94.86539       	92.5726        	89.34152       	93.7441        	92.09089       	94.76063       	93.14571       	90.128334      	90.15661       	92.35835       	93.43079       	93.50585       	90.84191       	88.2986        	92.43012       	91.250404      	92.363815      	91.621         	87.85269       	95.19583       	91.17024       	89.86503       	92.398315      	92.5313        	94.42615       	92.81679       	95.10792       	93.20467       	92.04979       	92.56113       	93.25838       	93.550934      	93.72759       	93.31105       	93.56629       	94.525925      	94.76215       	91.52217       	96.60624       	92.33862       	93.17128       	94.285324      	90.90015       	95.31832       	93.19219       	90.55724       	93.02824       	92.10025       	93.59883       	93.85772       	89.6833        	89.58159       	92.53634       	93.08095       	94.34612       	91.68977       	95.30327       	93.41993       	92.11115       	92.236984      	92.02184       	95.17095       	94.36433       	93.78282       	92.428535      	94.45857       	94.367096      	94.235954      	93.43271       	92.82186       	93.57081       	94.880745      	94.43639       	94.87653       	94.64014       	92.965195      	95.83005       	95.87292       	95.51065       	94.695366      	93.61408       	
92.03978       	91.02288       	92.15074       	91.92276       	90.75066       	92.38361       	91.992226      	91.33662       	93.28697       	92.370125      	92.31222       	94.60072       	90.66054       	91.90996       	95.84759       	90.720146      	94.70943       	92.43541       	95.372856      	94.30631       	90.9334        	93.23227       	92.70673       	88.84485       	94.55269       	91.559525      	91.46475       	92.67651       	89.5411        	87.83017       	92.42337       	91.14493       	90.284164      	88.67734       	88.00886       	93.474884      	92.6919        	90.63685       	89.73475       	94.19685       	92.17978       	92.036         	91.91778       	93.93795       	94.339516      	91.022125      	94.41516       	93.40841       	92.06422       	92.607834      	92.4244        	93.69179       	94.474686      	92.23816       	95.312675      	94.650764      	91.93666       	92.0536        	94.03364       	93.36061       	94.39608       	92.549225      	90.66858       	94.33534       	91.92809       	92.52266       	92.79815       	93.715706      	95.35164       	92.31021       	89.53968       	91.324615      	92.07118       	93.80189       	92.890175      	89.09558       	94.06767       	93.28174       	94.07337       	92.10804       	90.51889       	93.0039        	93.40031       	94.78796       	91.76075       	95.44711       	93.4812        	93.61259       	97.07982       	95.100136      	90.62854       	94.580414      	93.147575      	95.91566       	95.73295       	92.97653       	92.20157       	94.76045       	94.40925       	94.383804      	
92.48104       	93.834564      	90.08309       	92.28931       	94.7207        	90.90382       	93.83605       	94.2092        	91.466354      	93.92498       	95.10823       	92.816635      	93.654144      	92.595184      	92.50578       	93.27596       	93.23155       	93.38533       	93.814095      	92.36435       	92.09886       	94.37231       	94.65145       	92.66963       	91.92561       	92.242226      	94.092415      	94.15134       	93.25511       	90.99866       	91.16999       	90.046906      	94.17395       	93.67018       	90.897896      	89.97165       	94.38007       	93.79343       	94.16922       	93.10371       	91.49342       	94.5536        	94.975655      	92.89445       	91.2082        	94.88652       	92.85009       	93.186615      	94.391495      	94.044304      	95.55024       	93.91145       	91.47763       	94.49874       	91.87059       	94.28942       	93.3061        	94.613556      	94.25151       	91.357895      	91.52969       	93.29491       	93.349525      	92.74262       	91.59126       	92.914604      	92.74014       	93.274734      	92.5892        	90.29301       	94.96122       	92.81883       	91.72122       	91.80787       	93.09724       	94.52064       	92.60999       	90.25773       	90.11065       	93.03334       	94.219086      	94.03313       	92.09008       	94.10588       	94.33533       	94.115326      	92.90663       	92.83374       	93.00278       	93.38103       	95.61109       	92.308075      	91.938835      	94.67579       	93.446686      	95.78744       	95.84262       	94.93597       	93.35159       	92.90645       	
93.460625      	92.73418       	94.52096       	92.32572       	94.23266       	92.36069       	93.15271       	93.6066        	93.289154      	93.74816       	93.64186       	93.27931       	93.52284       	93.06315       	93.13404       	93.888824      	92.72114       	94.154335      	93.06791       	95.02868       	95.17855       	92.33813       	91.79428       	93.268105      	91.319374      	94.88223       	94.0536        	91.3765        	92.16191       	91.76329       	93.617         	93.519485      	91.14018       	89.918945      	90.23556       	94.24367       	93.97133       	94.86984       	93.93924       	91.895454      	91.84553       	93.38317       	92.54407       	91.990486      	94.10289       	93.88387       	93.382706      	92.464645      	93.47881       	93.575455      	92.8543        	94.50278       	94.94544       	92.778         	91.71474       	94.75513       	92.73315       	93.14086       	93.21236       	92.96654       	95.050064      	92.541756      	90.93605       	91.09974       	93.66415       	93.45033       	91.54234       	91.360344      	90.66124       	94.77154       	92.81557       	90.93474       	91.3407        	92.329605      	92.18279       	91.831345      	90.514244      	94.65246       	94.53236       	93.1024        	91.85873       	93.79923       	93.411545      	94.711716      	93.483635      	92.31815       	94.07982       	92.98137       	94.26383       	94.471664      	92.77868       	92.1844        	93.422646      	93.75859       	93.89384       	93.751434      	93.796394      	93.62592       	93.50764       	93.65707       	
92.53027       	92.40773       	92.057335      	93.07043       	92.8119        	94.00658       	92.084724      	93.34303       	93.83287       	92.271835      	94.00461       	93.681755      	91.96141       	93.70716       	92.92826       	93.46338       	92.679886      	92.10152       	93.247444      	92.66557       	92.47848       	92.54403       	94.00701       	94.363365      	92.23421       	91.05774       	92.68452       	90.87272       	95.0143        	93.990234      	91.65877       	92.0747        	91.43807       	93.10954       	93.55048       	91.7872        	94.88746       	94.11337       	92.529045      	91.30264       	93.15363       	92.30615       	92.0043        	91.98038       	94.22433       	94.15868       	93.59037       	94.80111       	94.282196      	93.745804      	94.74846       	94.42062       	93.850815      	93.39015       	94.260826      	94.47222       	92.37066       	95.48254       	93.57276       	92.916245      	94.64179       	92.88403       	95.539474      	93.74299       	91.57324       	93.177704      	92.12497       	95.24194       	94.95252       	92.01285       	91.86125       	92.035484      	94.063034      	92.53029       	90.52917       	91.785805      	91.46722       	93.30677       	91.948135      	94.24663       	93.60303       	93.17976       	91.7849        	91.57372       	92.79399       	94.308754      	95.306915      	92.6773        	92.49898       	92.50439       	92.21642       	94.66927       	93.88653       	91.839806      	93.1894        	93.20227       	94.138756      	95.80217       	96.06001       	95.71229       	
92.536934      	92.08488       	92.80204       	91.594986      	91.75058       	92.39948       	92.82014       	92.1328        	92.911064      	92.91999       	91.39924       	93.67348       	93.12808       	92.785995      	93.534134      	92.3167        	93.35669       	92.94083       	92.941925      	92.8048        	93.171906      	94.25562       	92.24411       	91.45553       	93.117226      	93.29438       	93.8772        	92.664024      	91.67852       	90.89331       	93.89787       	93.39224       	92.11427       	89.74014       	93.93108       	91.83402       	91.943275      	92.530815      	91.44289       	92.33243       	91.89654       	92.486725      	91.794075      	93.48743       	93.8119        	91.90196       	92.013466      	93.00575       	93.09913       	92.24217       	93.21327       	93.72563       	91.96027       	94.15498       	94.11527       	91.2309        	91.94405       	91.72382       	92.729294      	93.98581       	90.75921       	93.65852       	92.32974       	91.42265       	90.99317       	90.580124      	91.78914       	92.71486       	91.66358       	90.34264       	90.30346       	92.38683       	90.65285       	91.36604       	91.64024       	91.95503       	93.17301       	91.59117       	95.727165      	93.588776      	92.14306       	92.60742       	93.11644       	94.1658        	94.43041       	92.45056       	92.151436      	93.6584        	94.00453       	93.24752       	93.26747       	94.00707       	92.868416      	93.329094      	94.200645      	93.4688        	93.68258       	94.09737       	94.24175       	94.13579       	
