# www.neaspec.com
# Scan:	 	AFM
# Project:	 	20251007_PS
# Description:	 	
# Date:	 	10/07/2025 11:59:45
# Scanner Center Position (X, Y):	[µm]	49.99	50.01	 
# Rotation:	[°]	0	 	 
# Scan Area (X, Y, Z):	[µm]	5.000	5.000	0.000
# Pixel Area (X, Y, Z):	[px]	100	100	1
# Averaging:	 	1	 	 
# Integration time:	[ms]	5	 	 
# Laser Source:	 	4.5-15 µm nano-FTIR laser
# Detector:	 	R
# Target Wavelength:	[µm]	7.502	 	 
# Demodulation Mode:	 	Fourier
# Tip Frequency:	[Hz]	241,340.500	 	 
# Tip Amplitude:	[mV]	45.700	 	 
# Tapping Amplitude:	[nm]	80.938	 	 
# Modulation Frequency:	[Hz]	0.000	 	 
# Modulation Amplitude:	[mV]	0.000	 	 
# Modulation Offset:	[mV]	0.000	 	 
# Setpoint:	[%]	79.75	 	 
# Regulator (P, I, D):	 	4.206850	8.625812	1.000000
# Tip Potential:	[mV]	0.000	 	 
# M1A Scaling:	[nm/V]	0.426	 	 
# M1A Cantilever Factor:	 	1,000	 	 
# Q-Factor:	 	487.4	 	 
# Version:	 	2.1.11536.0
92.802376      	93.17208       	93.053795      	92.36779       	92.402336      	93.62967       	93.13847       	92.35564       	93.63197       	93.511314      	93.397835      	93.054794      	92.52539       	92.04431       	93.29481       	92.01238       	91.76633       	93.05153       	93.221115      	92.16798       	92.932816      	93.93635       	92.34903       	92.83477       	94.35644       	93.29461       	93.02567       	93.63421       	92.91597       	93.30538       	94.34889       	92.40323       	93.10792       	93.56082       	92.9133        	92.21203       	93.60759       	92.82997       	91.542816      	92.60993       	93.39903       	91.96367       	92.50907       	92.89072       	92.14981       	93.217545      	93.00215       	92.056526      	92.652336      	93.23689       	92.9104        	93.031075      	93.443794      	93.59049       	93.01183       	93.35566       	93.58855       	93.71461       	93.27487       	93.457115      	93.896614      	93.41584       	93.439835      	92.15133       	92.86053       	94.205795      	93.01554       	92.79173       	93.92114       	92.674675      	93.30193       	94.079666      	93.76399       	93.93213       	93.67448       	93.857895      	93.792076      	94.40362       	94.04493       	92.96224       	94.45273       	93.77607       	93.65205       	93.900116      	93.667496      	93.88867       	92.95397       	93.25416       	94.12863       	93.719406      	92.93701       	92.72157       	93.599686      	93.18625       	92.890656      	93.804276      	93.925575      	93.44559       	93.62891       	93.335976      	
93.13781       	94.101         	93.1669        	93.085434      	93.69848       	92.851326      	93.12312       	93.74979       	93.57742       	93.17709       	93.95505       	93.730385      	94.1333        	93.86744       	93.40499       	93.91194       	93.109505      	92.75021       	93.63034       	93.42407       	93.02759       	93.432945      	93.895386      	93.646866      	93.10684       	93.98341       	94.358315      	93.72304       	93.44788       	93.98436       	94.25554       	93.3558        	93.15717       	94.81133       	93.964165      	93.39332       	93.64831       	93.98398       	93.379         	93.20684       	92.58778       	93.09075       	93.46274       	92.46382       	93.51283       	93.81756       	92.592766      	92.48398       	93.36635       	94.04931       	92.99871       	93.44057       	93.685455      	94.2142        	93.415855      	93.764366      	94.20749       	94.128334      	93.17583       	92.92296       	94.01583       	93.56738       	92.51262       	93.37011       	94.31989       	93.89845       	93.058464      	94.06642       	94.37951       	93.57992       	93.237335      	94.02233       	93.392685      	92.739655      	93.54265       	94.33043       	93.18674       	93.4884        	95.27226       	93.80659       	93.49324       	95.618546      	94.16043       	93.65791       	94.44787       	93.680046      	92.973114      	94.0522        	93.02281       	93.08355       	94.71971       	93.38699       	93.24451       	93.298256      	93.26283       	93.09559       	92.838486      	92.809044      	93.14235       	93.23804       	
92.9522        	94.32837       	93.63355       	93.37256       	93.978195      	93.135376      	93.2528        	92.91325       	93.10444       	93.913895      	93.06743       	92.59663       	93.711334      	93.30838       	91.57878       	92.93919       	93.37212       	92.40811       	93.03475       	93.755356      	92.97442       	93.304474      	93.66734       	93.53499       	94.278114      	93.284744      	93.223785      	93.73351       	93.67259       	93.55802       	92.87715       	93.717804      	93.95881       	93.23194       	93.9369        	93.61726       	92.86927       	92.71202       	92.368         	92.97314       	92.465706      	92.09279       	93.15743       	93.262115      	92.380165      	92.85074       	93.8174        	92.898964      	91.942856      	94.05553       	92.97153       	92.71359       	93.13257       	93.089584      	93.383835      	93.39181       	93.356155      	93.654495      	94.249214      	93.75603       	92.94843       	94.51005       	93.10092       	93.097084      	94.478485      	93.58759       	93.82882       	93.98304       	93.75822       	93.68433       	93.528046      	93.50804       	93.54792       	94.474335      	92.87292       	93.45711       	94.10643       	93.089485      	93.58864       	94.22859       	93.77841       	94.73201       	94.83698       	93.70281       	94.72527       	95.24992       	93.53247       	94.42512       	95.532906      	93.656334      	93.44746       	94.94811       	94.383026      	93.55676       	93.78217       	94.08095       	93.19394       	92.85098       	93.43204       	93.4561        	
93.35982       	92.57563       	93.775764      	93.09          	92.45101       	94.678276      	93.230644      	92.18173       	95.30022       	93.18368       	92.68978       	94.65084       	94.04943       	92.66409       	93.84663       	94.06996       	92.06327       	93.602425      	93.90626       	92.1408        	93.84134       	93.94494       	92.0912        	94.23045       	94.09307       	92.20304       	93.86808       	94.94555       	91.776474      	93.33029       	95.33878       	91.862465      	93.59489       	94.37409       	92.40698       	93.4419        	94.720695      	93.49545       	93.12088       	93.910576      	92.74779       	93.53529       	94.334625      	92.59144       	93.35438       	94.594574      	91.64586       	92.718796      	94.83177       	91.97285       	91.50487       	94.71545       	93.0621        	91.565506      	94.355484      	93.76139       	92.20649       	94.04265       	94.18665       	92.54762       	94.503174      	93.80595       	91.53218       	94.34687       	93.694855      	91.85578       	93.428635      	94.34769       	91.787834      	92.92912       	93.97167       	92.34689       	93.83651       	93.97879       	92.75912       	93.960655      	93.203156      	92.6068        	94.5357        	94.2649        	92.14357       	94.77677       	95.45794       	92.68758       	94.45433       	95.56347       	93.37132       	93.46544       	94.61258       	93.53093       	93.019905      	94.04393       	93.29295       	92.95975       	94.545         	93.14714       	92.05667       	92.72148       	93.71915       	94.36117       	
93.39222       	94.576126      	93.31257       	92.667496      	94.76031       	94.456474      	92.548615      	94.376785      	95.06608       	92.78223       	94.04225       	94.52348       	93.05437       	94.07759       	93.97145       	93.87432       	94.04445       	94.40112       	94.5794        	94.68371       	94.78512       	95.008194      	93.13164       	94.24022       	94.75461       	92.93053       	93.3074        	94.69116       	93.14476       	93.47908       	94.566536      	93.738525      	93.182526      	93.41666       	93.46561       	92.96785       	93.29986       	93.13168       	94.005424      	93.53072       	93.01696       	94.12254       	93.68198       	93.336624      	93.851         	93.62099       	93.96048       	93.76812       	93.633736      	94.029785      	94.1097        	92.27308       	93.4362        	93.89482       	92.76502       	93.16931       	93.93312       	93.57457       	93.80546       	93.8285        	94.37971       	94.3008        	93.18511       	94.59188       	94.01759       	94.01501       	93.56601       	94.45267       	94.46066       	92.91094       	95.117935      	94.48994       	93.31247       	93.958916      	94.55254       	94.6607        	93.640396      	94.094154      	94.521904      	93.490005      	94.13018       	95.1841        	94.43157       	95.198715      	95.00659       	95.42138       	95.1316        	94.349         	94.3155        	94.67965       	93.67839       	93.09366       	94.66119       	94.47853       	94.006485      	94.09616       	94.33149       	94.293205      	93.8451        	93.281944      	
94.33499       	93.17472       	94.26138       	94.64489       	93.949875      	93.6118        	94.401596      	94.07942       	93.5415        	94.40565       	94.07968       	94.13133       	93.42554       	92.87348       	93.89367       	92.959724      	92.39599       	93.55762       	94.10062       	92.9003        	93.59337       	94.8232        	93.6659        	92.6514        	94.31432       	93.50037       	92.11823       	92.9533        	93.794304      	92.07067       	93.12456       	93.70649       	93.29545       	92.592804      	93.36813       	94.01241       	93.961685      	94.124176      	94.08575       	94.34713       	93.87919       	93.21813       	94.0862        	93.701675      	92.24304       	94.02211       	94.33778       	92.58589       	92.94112       	94.9512        	92.678604      	92.99068       	95.07625       	92.491714      	92.81437       	93.89107       	93.402214      	93.68213       	94.143814      	93.53759       	93.90584       	93.523026      	92.39701       	93.23939       	94.06346       	92.06877       	93.38953       	94.38655       	92.93047       	93.10524       	94.09912       	93.3992        	92.80021       	93.02682       	93.080246      	93.47168       	94.25133       	93.09376       	93.46025       	94.583916      	93.307335      	93.68818       	95.412926      	94.511475      	93.19526       	95.58264       	94.77132       	93.19298       	94.547325      	95.863335      	93.24646       	94.530876      	95.63951       	94.196335      	94.08541       	94.57793       	94.38496       	94.0918        	94.50198       	94.3083        	
93.823524      	92.28499       	93.07866       	95.26781       	92.84166       	92.84417       	93.44443       	92.96434       	93.75864       	93.935234      	92.79794       	92.8399        	94.057945      	92.67375       	92.71369       	93.781296      	92.712074      	92.03632       	93.85208       	93.00239       	91.748184      	93.444695      	93.44902       	92.03947       	92.36329       	93.522575      	92.730064      	91.66533       	92.5985        	92.23245       	91.72595       	92.50829       	93.38302       	93.15246       	92.4464        	94.18035       	93.98426       	92.53932       	93.62267       	94.59781       	93.23547       	92.91609       	94.59801       	93.75622       	92.34267       	93.76899       	93.34293       	93.05252       	93.68322       	93.38245       	93.85047       	92.55038       	93.19515       	93.46651       	93.31365       	92.930405      	93.47241       	94.62365       	92.202255      	93.90866       	94.737625      	93.39739       	92.14909       	93.91577       	93.495636      	92.470406      	93.97016       	94.17894       	93.51815       	93.36718       	93.445564      	93.21895       	94.08046       	93.01921       	93.811806      	94.12749       	92.61768       	94.28966       	94.32092       	92.997314      	93.157875      	95.29781       	93.212555      	94.08924       	94.61588       	93.804         	94.83577       	94.28165       	93.28529       	94.34649       	94.96788       	92.94835       	93.352005      	95.23571       	93.52816       	92.58414       	94.00955       	95.006676      	94.48131       	93.59472       	
92.41985       	93.41236       	93.24227       	93.144806      	93.88378       	93.830154      	93.696335      	92.77276       	94.176025      	94.03004       	92.10949       	94.04851       	94.11618       	91.59826       	93.117294      	94.497444      	91.7139        	92.53989       	94.91225       	92.8715        	91.88961       	94.603516      	93.242584      	91.866264      	94.0368        	93.11014       	92.25746       	93.026535      	92.343094      	92.853935      	92.99191       	92.83324       	92.55409       	93.97383       	93.15892       	91.98291       	93.144585      	93.51831       	92.92566       	92.88151       	93.64368       	93.38322       	92.58627       	93.72328       	93.52568       	93.4149        	92.499756      	93.105804      	93.41194       	92.1569        	93.4299        	93.22846       	92.14266       	92.108315      	92.30684       	92.34083       	92.12265       	92.57696       	92.48978       	92.813545      	93.44471       	92.34588       	92.355156      	94.163895      	92.061455      	92.78073       	94.14388       	92.8199        	92.60624       	93.953255      	93.1288        	92.31011       	93.63704       	93.93875       	92.91286       	92.7399        	93.605865      	92.80986       	92.976555      	93.05208       	93.10685       	93.19796       	93.7463        	93.42692       	94.3734        	94.54385       	93.715485      	93.63513       	95.38977       	93.54117       	93.59327       	94.997925      	93.53438       	93.351166      	94.019516      	93.54566       	93.49364       	93.86767       	93.83112       	93.81255       	
93.694916      	94.73092       	93.240105      	94.52135       	93.66924       	93.43372       	94.187294      	93.474594      	93.62491       	94.971924      	93.502945      	93.40799       	95.41492       	94.22865       	92.92088       	94.96479       	94.662926      	93.211174      	94.54145       	94.21366       	93.47257       	94.321686      	93.44209       	93.95399       	94.60815       	93.09428       	93.686646      	94.873276      	93.76663       	93.568565      	95.61131       	95.08819       	92.75585       	95.076454      	94.73329       	92.713264      	93.49443       	94.40162       	93.649345      	93.23092       	94.289665      	93.89025       	93.614105      	94.44999       	93.85485       	93.295334      	94.13574       	92.61963       	93.47352       	93.985725      	93.4222        	93.13575       	93.45003       	94.47693       	93.84982       	92.32368       	94.010574      	93.28667       	93.32593       	93.62254       	93.24946       	93.99284       	93.85955       	93.5053        	94.03161       	94.39083       	93.389114      	93.729324      	94.62292       	93.61336       	93.25436       	94.260025      	94.202446      	93.29582       	94.45285       	94.079865      	93.414566      	94.37365       	93.76469       	93.93189       	95.19396       	93.5649        	93.904816      	95.645454      	94.68074       	93.78863       	95.279         	95.351715      	93.37977       	95.27084       	95.03724       	93.80042       	93.092705      	94.06371       	93.83965       	92.550995      	92.98493       	94.40294       	94.55565       	94.00987       	
94.18506       	92.402985      	93.61679       	94.16305       	91.66122       	93.20293       	94.370865      	92.39588       	92.66154       	94.38367       	92.6838        	91.99892       	93.264114      	92.804184      	92.313         	92.29792       	93.48506       	93.04186       	92.38809       	92.94427       	93.56288       	93.12439       	93.52669       	92.94426       	93.19948       	94.05742       	92.14611       	93.02184       	94.69538       	92.21959       	92.7835        	94.896645      	92.182495      	92.87086       	94.42121       	92.86108       	91.90904       	93.75526       	93.416695      	93.33637       	94.26065       	93.99797       	93.78616       	94.324936      	92.638435      	93.23424       	93.91808       	92.44954       	92.42425       	93.26991       	92.9018        	93.65068       	92.93727       	93.04257       	93.49946       	92.63243       	92.28822       	93.90365       	93.300095      	92.2372        	93.59066       	94.35807       	93.81459       	93.57758       	93.43852       	93.58379       	92.85937       	93.43884       	92.679214      	93.57813       	93.1456        	92.926155      	94.24383       	93.2289        	93.00032       	94.38985       	93.89249       	93.70211       	93.64114       	93.613365      	92.93022       	92.91326       	93.22726       	93.56481       	95.1272        	93.74067       	93.903915      	94.87451       	94.454155      	94.16269       	94.93708       	95.05022       	93.84501       	94.20276       	94.51039       	93.56254       	93.348404      	93.27279       	93.52153       	93.305695      	
92.36032       	93.48851       	91.66235       	93.69441       	93.55745       	92.00257       	93.95714       	94.096016      	92.745964      	93.64091       	92.87495       	93.53148       	94.37575       	93.21294       	92.77225       	93.73119       	92.87887       	91.59932       	93.66121       	93.50807       	90.87305       	94.09718       	93.65101       	91.742096      	94.01579       	93.27923       	92.462776      	93.68759       	93.23453       	91.684975      	93.74438       	93.63658       	91.53          	93.99665       	94.11739       	91.32476       	92.82464       	94.760864      	91.757324      	92.66951       	94.261925      	91.95479       	92.67997       	94.31142       	91.93029       	92.55644       	94.86522       	92.03814       	92.20338       	94.426704      	92.7867        	92.24525       	94.248085      	92.571915      	92.129265      	93.71219       	92.10607       	92.08885       	94.33772       	92.70706       	91.28883       	93.75167       	93.23368       	91.792404      	93.536934      	93.16401       	92.33969       	93.00371       	92.71464       	93.113655      	92.864876      	93.27876       	92.16519       	93.4548        	93.177704      	91.766266      	93.8806        	93.5868        	92.205925      	92.95256       	94.24536       	93.110245      	93.21183       	94.14031       	93.29281       	93.07044       	93.43232       	93.03322       	94.37991       	94.190704      	92.703606      	94.44132       	93.52413       	92.52294       	93.50671       	94.11742       	92.808876      	92.21982       	92.77519       	93.15291       	
92.08199       	93.98127       	92.2258        	93.25188       	94.076454      	92.55665       	92.22538       	94.136116      	92.58627       	91.768524      	93.94255       	92.976105      	92.28264       	93.40734       	92.906525      	93.04678       	93.3219        	93.068474      	93.51106       	93.3153        	93.08552       	93.17376       	93.77431       	92.66943       	92.64217       	93.82486       	92.98739       	91.28018       	93.191826      	93.01268       	92.240486      	92.73097       	93.53433       	93.30446       	91.93156       	94.08219       	93.10845       	93.437836      	93.675644      	93.0791        	94.08591       	93.74395       	92.84168       	94.358284      	93.708855      	93.24315       	92.686195      	93.228386      	93.66206       	92.1156        	93.65413       	93.10959       	93.18066       	92.72953       	92.94453       	93.50705       	92.86374       	92.94701       	92.685196      	92.78227       	92.57915       	93.17721       	92.92046       	93.18991       	93.00233       	92.02657       	92.50194       	93.281204      	92.88228       	92.74828       	93.07134       	93.722275      	92.46981       	92.86727       	93.53365       	93.146515      	93.439865      	93.03153       	93.295166      	93.54455       	93.233246      	93.42579       	94.06239       	94.07685       	93.505974      	94.37357       	94.976974      	93.59806       	93.834404      	94.992065      	94.566734      	93.8079        	94.63794       	94.598724      	93.40222       	93.688705      	93.59303       	93.07718       	93.13654       	93.40751       	
93.9967        	93.474686      	92.68599       	95.27299       	94.1566        	92.931915      	94.335014      	94.04784       	93.01065       	93.51342       	93.33949       	93.80744       	92.90759       	92.98007       	94.25632       	93.54843       	93.257324      	93.09761       	93.11176       	93.1811        	93.19832       	92.98907       	94.21496       	93.64509       	92.60556       	93.16712       	93.45687       	93.28807       	93.462         	93.74427       	93.28313       	93.357185      	93.21718       	93.27599       	93.323395      	93.12814       	92.961624      	93.16369       	92.701         	93.28078       	92.74419       	93.17663       	93.4228        	92.871826      	93.748215      	93.82974       	93.745224      	94.0822        	93.09078       	93.71789       	94.044624      	92.673996      	93.27067       	94.04815       	93.57372       	93.26794       	94.75094       	93.946205      	93.14722       	93.73073       	93.398926      	93.321915      	94.101204      	92.65909       	93.265434      	94.02133       	93.005844      	92.94922       	93.86612       	93.37641       	92.944         	94.38134       	94.16718       	93.90419       	93.68531       	94.04027       	94.188194      	95.24641       	93.69691       	93.61353       	94.96706       	93.99737       	93.67231       	94.363174      	93.82809       	92.97723       	94.075325      	94.53808       	93.507935      	94.66215       	94.27052       	93.69234       	94.98139       	94.29077       	93.49645       	94.32352       	94.52645       	94.58797       	94.271965      	93.16641       	
93.327675      	92.2913        	92.889565      	92.61137       	92.642426      	92.988655      	93.11193       	93.259735      	93.79617       	94.119156      	92.29341       	93.295044      	94.52453       	93.07775       	92.70763       	93.723305      	92.540825      	92.56737       	93.57777       	92.83516       	92.29173       	93.09164       	92.33631       	93.29373       	93.560455      	92.929794      	92.36715       	92.86443       	93.4406        	92.54369       	92.71362       	93.73316       	93.68961       	93.79515       	93.27902       	93.418686      	93.90518       	93.29577       	93.47253       	93.57974       	93.31957       	93.70679       	93.481094      	93.74655       	94.552505      	92.99731       	92.86536       	94.123055      	93.24397       	93.67052       	93.14029       	93.561966      	93.85005       	93.93718       	93.649216      	94.24458       	94.11968       	93.51722       	93.46272       	93.50977       	94.26757       	93.166046      	93.21453       	94.14437       	93.62999       	93.15602       	93.12532       	93.04651       	93.317795      	92.39966       	91.80197       	93.67537       	93.53951       	91.676704      	93.50415       	93.759346      	92.828995      	93.3414        	93.968346      	93.35608       	93.703125      	93.78448       	92.84608       	93.473404      	93.65581       	92.38146       	93.6069        	93.61852       	93.24666       	93.36661       	93.34791       	93.13646       	94.17784       	93.24097       	92.977005      	93.88977       	93.53743       	93.26633       	93.16117       	93.16566       	
92.75496       	92.68522       	93.28924       	92.67496       	93.39064       	93.2366        	93.137535      	93.55683       	92.972984      	94.35082       	94.35307       	92.373505      	93.28185       	94.0492        	92.9194        	93.35901       	93.44653       	93.581085      	93.3748        	93.224174      	93.05568       	92.86369       	93.4874        	92.06983       	93.47514       	93.36417       	92.94779       	92.83643       	93.53354       	93.708954      	92.37558       	92.5017        	92.95182       	92.78312       	92.229324      	92.503426      	93.20059       	92.93974       	92.33488       	93.0499        	93.012375      	93.520874      	92.92708       	92.82982       	93.34083       	93.89225       	93.84652       	94.1455        	93.985115      	93.33312       	93.95854       	93.6047        	93.5617        	92.9517        	91.99831       	94.03146       	94.25339       	93.233086      	92.86987       	93.85237       	92.75524       	93.28276       	93.95496       	93.66741       	93.69174       	93.0006        	93.16192       	94.24303       	93.318405      	92.526665      	93.434746      	93.322754      	92.6403        	93.20374       	93.12622       	92.99687       	94.25278       	93.33233       	92.93433       	94.29622       	92.88871       	92.7087        	94.52755       	94.15781       	92.991806      	93.318596      	93.54838       	93.16745       	94.00158       	94.52281       	93.95018       	94.22649       	93.78775       	93.32386       	94.56595       	94.523575      	92.84301       	92.337776      	93.149506      	93.54045       	
92.424225      	92.486824      	91.76189       	93.51188       	92.411415      	91.77143       	93.04989       	92.83947       	92.23401       	93.49409       	92.40589       	92.46446       	92.90756       	92.44917       	91.977005      	93.60353       	93.040695      	91.76466       	92.812004      	93.19734       	91.90797       	93.75902       	93.40195       	91.849785      	93.54927       	92.9041        	91.17501       	93.9672        	93.37683       	92.34283       	93.492836      	93.36719       	92.15075       	93.43485       	93.228546      	92.41808       	93.581406      	93.25374       	92.11464       	93.72754       	93.754745      	92.71837       	93.268524      	93.29097       	93.22989       	93.01854       	93.15812       	92.89299       	93.69534       	94.298225      	93.19223       	93.29585       	94.97614       	93.54284       	93.35763       	94.7367        	94.22838       	93.66373       	94.64197       	93.932816      	93.98898       	94.75065       	93.44246       	93.18966       	94.846596      	93.2275        	93.31478       	94.25126       	93.621956      	92.8993        	93.5988        	93.53604       	93.789154      	93.69036       	93.32255       	93.63234       	94.27267       	93.775055      	93.88852       	93.963486      	93.9738        	93.794266      	93.62263       	93.24651       	93.77336       	93.84664       	92.73066       	93.6969        	93.55213       	93.6841        	93.04192       	93.30079       	94.63765       	94.09364       	93.57929       	94.77099       	94.82207       	93.79085       	93.19621       	93.40099       	
93.60192       	92.99306       	92.82926       	93.48319       	92.86266       	92.91429       	92.95537       	93.702225      	93.61899       	93.308556      	93.58468       	92.856445      	93.57182       	93.58834       	92.691444      	92.62338       	93.842705      	93.3735        	92.024         	93.45965       	93.43084       	92.20996       	93.4522        	93.59488       	92.55743       	92.95223       	92.075455      	92.23365       	93.468216      	92.47967       	91.717026      	92.92333       	92.632774      	92.31959       	92.69616       	92.84716       	92.66283       	91.99472       	92.54222       	92.47559       	93.03432       	92.64008       	92.497055      	93.09431       	93.01978       	92.71211       	92.87129       	93.428154      	92.17188       	93.03133       	92.54374       	92.39103       	93.15483       	92.567085      	92.45763       	93.07409       	93.095085      	93.12757       	92.34649       	94.0117        	93.45391       	92.438194      	94.024765      	93.08438       	92.335884      	93.502975      	92.705696      	92.90214       	93.44957       	91.963066      	93.004684      	93.4856        	92.89242       	91.99942       	93.34395       	93.142105      	92.03348       	93.451935      	93.316475      	92.48359       	94.00463       	92.71062       	92.85057       	94.01273       	93.4451        	92.349434      	94.81117       	94.34576       	92.80624       	94.61827       	94.81872       	93.619064      	93.72754       	94.01299       	93.61499       	94.385574      	94.899994      	94.37182       	93.78856       	93.452446      	
97.114174      	96.68712       	96.27025       	96.69282       	96.88468       	96.08109       	96.35323       	96.54566       	97.23536       	96.611435      	95.94153       	97.260826      	96.46602       	95.57047       	96.669464      	96.22669       	95.13337       	96.01522       	96.01796       	95.93676       	96.11166       	95.79094       	95.63407       	96.064255      	96.04778       	94.78493       	96.14448       	95.62967       	94.62788       	95.319626      	95.53512       	94.34229       	95.2181        	94.57785       	94.42406       	95.09361       	94.18261       	93.92797       	94.75245       	93.56944       	93.11146       	93.53479       	93.5877        	92.9517        	92.51508       	92.97606       	91.82274       	91.262375      	91.8287        	91.1795        	90.830124      	90.28576       	90.35737       	90.19233       	90.28458       	89.455124      	89.61103       	89.60052       	88.99452       	87.545135      	88.566895      	87.93172       	86.49992       	88.05757       	88.023445      	85.961685      	87.53925       	87.50774       	86.15845       	86.88228       	86.671524      	85.17534       	86.25272       	86.70043       	84.343765      	84.54094       	85.62757       	83.4948        	83.64985       	84.049225      	82.70232       	82.77239       	83.72452       	82.47845       	83.87422       	85.135056      	84.361664      	86.497505      	88.48001       	88.28423       	90.59201       	91.663155      	93.19249       	94.034134      	95.623665      	95.7768        	96.26726       	97.05364       	97.65264       	96.95035       	
92.43094       	93.82054       	93.059555      	94.40572       	94.004555      	93.700035      	93.99007       	94.6824        	93.58327       	95.029854      	94.88836       	92.970085      	94.64357       	95.208115      	93.219345      	94.69678       	95.43518       	93.334274      	95.06709       	95.0527        	93.3604        	95.78053       	96.16609       	93.842445      	95.57454       	96.35483       	93.3245        	95.75722       	97.019356      	94.70398       	95.457306      	96.0795        	95.16977       	95.86955       	97.05346       	94.777435      	96.54068       	97.92834       	94.73367       	95.74878       	98.536385      	95.80345       	95.55934       	98.071526      	96.19702       	95.79993       	98.02845       	95.11585       	95.62322       	97.658585      	95.134735      	95.55501       	98.00475       	96.031334      	95.539474      	98.11332       	97.92669       	94.926285      	98.752205      	98.35934       	95.83594       	97.93869       	98.30498       	96.14546       	98.10014       	97.01669       	95.49094       	98.15081       	96.73093       	94.58243       	98.02847       	97.49015       	95.77308       	97.31987       	97.233185      	95.740265      	96.189156      	96.435425      	95.03255       	96.38236       	96.93587       	94.688484      	95.97428       	97.57309       	94.73804       	95.45173       	96.579185      	94.2406        	95.41923       	96.20645       	94.43356       	94.958466      	95.898636      	94.36124       	94.42152       	96.10819       	95.27339       	94.15828       	94.192924      	94.275276      	
93.15526       	92.30204       	93.262726      	91.2942        	91.332504      	93.13494       	91.634766      	91.32338       	92.61739       	91.87503       	91.82788       	93.209625      	91.345474      	91.43951       	93.53593       	91.402954      	91.259384      	92.90394       	92.061356      	91.52319       	93.16947       	92.77698       	92.10538       	92.97253       	91.58056       	91.41466       	93.13962       	91.818565      	89.991905      	92.46851       	92.44698       	90.37688       	91.48649       	92.646675      	89.97569       	91.72808       	91.77323       	90.261406      	92.925385      	92.21074       	89.57098       	93.023766      	92.403755      	89.97956       	91.88575       	92.25198       	91.058914      	92.76165       	92.60776       	90.79107       	92.50651       	92.57723       	90.412315      	92.363434      	92.367836      	91.032104      	91.51972       	91.90611       	91.45859       	91.41166       	91.87032       	90.99003       	91.883514      	91.87085       	90.4578        	92.281425      	92.794304      	90.93255       	92.09972       	92.24788       	91.09607       	91.9417        	92.40518       	91.36022       	92.09826       	91.6901        	90.621704      	91.93897       	91.97598       	90.8842        	90.99569       	91.904594      	91.124825      	92.10319       	91.99496       	92.20703       	92.273186      	92.33386       	91.76794       	92.3311        	92.581436      	91.89446       	92.43828       	92.28847       	92.14476       	92.52199       	92.32657       	91.619194      	91.793564      	92.26012       	
93.6121        	92.78134       	92.89221       	93.10774       	92.748604      	92.606285      	92.96644       	93.46598       	92.666435      	92.65541       	93.27996       	93.4451        	92.969536      	92.39383       	93.35713       	93.25802       	92.77422       	93.530685      	92.87289       	92.87301       	93.185005      	92.43828       	92.420525      	93.67349       	93.699265      	92.688736      	93.90921       	93.42419       	92.70247       	93.429375      	93.09099       	92.969574      	94.1595        	93.22215       	93.66733       	94.95356       	92.85254       	93.22542       	94.27193       	93.71863       	93.773735      	94.11121       	93.575424      	93.52764       	93.9563        	93.41002       	93.3138        	94.257645      	93.23886       	92.575714      	93.923225      	93.797104      	92.82164       	93.384415      	93.62741       	93.61874       	93.826294      	92.94554       	93.594086      	94.635994      	93.494835      	93.37564       	94.38549       	93.42641       	93.226         	93.48327       	93.26322       	93.27426       	93.039024      	92.751595      	93.26305       	93.7891        	92.7528        	93.11231       	94.05006       	93.443245      	93.17322       	94.12216       	94.28287       	92.98304       	93.561806      	92.82385       	92.18026       	93.09793       	92.46322       	92.91223       	93.28858       	92.488         	92.513725      	93.4228        	93.09748       	92.91206       	94.11736       	93.78124       	93.12809       	93.487595      	94.141365      	94.05748       	93.90616       	93.7831        	
93.3259        	92.28462       	92.0536        	92.98495       	92.05903       	91.99492       	92.71748       	92.11125       	92.53757       	92.59167       	91.27851       	93.39054       	93.11745       	91.50426       	93.0685        	93.48265       	92.2198        	93.36115       	93.831825      	92.75539       	93.714516      	93.81075       	92.9615        	93.64209       	93.62134       	93.01726       	93.6389        	93.86553       	93.23891       	93.21005       	93.82088       	93.48915       	93.04766       	94.52302       	93.71504       	94.194084      	94.55539       	93.81857       	94.05439       	93.83377       	93.64594       	93.82647       	94.47839       	93.94213       	93.863396      	95.052246      	93.95412       	93.8242        	94.5856        	94.50847       	93.50654       	94.377884      	93.76197       	94.253586      	94.95076       	93.4038        	94.82561       	95.70727       	95.00216       	93.84082       	95.81789       	95.10491       	93.62114       	94.99057       	94.84277       	94.18604       	95.62222       	95.58469       	94.62097       	94.37898       	95.855034      	94.91003       	94.289635      	95.12895       	95.239716      	94.209595      	95.1505        	95.17806       	95.167046      	95.75068       	94.81404       	94.49866       	95.06343       	94.44296       	93.69752       	94.41617       	95.2411        	93.43391       	94.52591       	94.645355      	94.03392       	94.4685        	94.31412       	94.59748       	95.33357       	94.52901       	94.000046      	94.60465       	94.737434      	94.53984       	
93.208565      	92.98991       	92.68857       	93.05119       	92.0983        	92.12363       	92.70589       	92.74866       	92.27991       	92.23646       	92.413414      	92.862175      	92.82435       	92.07232       	93.06034       	92.52717       	92.47599       	92.47827       	92.53069       	93.60308       	92.27774       	93.2575        	94.04451       	92.87192       	93.15001       	92.81795       	92.433876      	93.28763       	93.07552       	92.46188       	93.2651        	94.01656       	92.39361       	93.198364      	94.52254       	93.367325      	93.46192       	93.4748        	93.3322        	93.64209       	92.94072       	93.3752        	93.85265       	93.7087        	93.74844       	93.52325       	94.007195      	93.56368       	93.13993       	93.98442       	93.63049       	93.22975       	93.26136       	93.55046       	92.63338       	92.494026      	93.77979       	92.49645       	93.48572       	93.78345       	92.71767       	94.437126      	94.119225      	92.73906       	94.32354       	94.222725      	93.034424      	93.97299       	94.53837       	93.179695      	93.6732        	94.26539       	93.44274       	94.67252       	95.31495       	93.023056      	94.39022       	95.729         	93.85205       	94.20944       	95.47241       	93.69306       	94.04682       	93.93867       	92.93047       	94.05355       	94.58672       	93.2616        	93.98701       	95.21269       	93.60021       	93.83346       	94.63208       	93.77421       	93.593544      	94.53509       	94.63436       	94.45797       	94.24126       	94.16955       	
92.9393        	93.32989       	92.70365       	93.22893       	93.20485       	92.819824      	92.98888       	93.17477       	92.47758       	92.68312       	92.98408       	91.91994       	92.41031       	93.40016       	91.830864      	92.17337       	93.72859       	92.45747       	92.54206       	93.33114       	92.711174      	92.91456       	93.03555       	92.09107       	92.81758       	93.41692       	91.99914       	92.73312       	93.132256      	92.463875      	92.11004       	93.36867       	92.792725      	92.03153       	93.289925      	92.985176      	92.70154       	93.24025       	93.487236      	93.5704        	93.66497       	93.74394       	93.229095      	93.452194      	94.01738       	92.965004      	93.224556      	93.462364      	94.01383       	93.47559       	92.52961       	94.131256      	93.36207       	93.029854      	93.303505      	93.761566      	93.311714      	93.870445      	94.33036       	93.524864      	94.47217       	93.814095      	92.992035      	94.18869       	94.21484       	92.78791       	94.33229       	94.81644       	93.29639       	93.70417       	94.285034      	93.81196       	93.82891       	94.58671       	92.75737       	94.0915        	94.59293       	93.212074      	93.85733       	94.50323       	93.43241       	93.1563        	94.131805      	93.66881       	93.77788       	94.34859       	93.18822       	94.129814      	95.103546      	93.54697       	93.618774      	94.91368       	93.63268       	93.473274      	94.514084      	94.45959       	93.49357       	93.57602       	93.999374      	94.56342       	
92.50997       	92.33399       	92.978745      	92.3809        	91.83983       	92.75359       	91.800835      	92.153275      	91.669426      	90.94059       	92.65817       	91.65347       	91.00175       	92.355576      	92.14661       	90.667564      	92.298004      	93.00263       	91.520805      	91.53775       	92.27811       	92.2057        	91.92724       	92.47448       	92.358604      	92.684166      	92.66776       	92.52116       	93.03364       	92.68239       	91.584435      	92.90337       	93.502         	91.12767       	93.14069       	93.1936        	92.25041       	92.2469        	92.70472       	92.41594       	92.37667       	92.91626       	92.78704       	92.21146       	92.85539       	92.142654      	92.26938       	93.57746       	93.14513       	92.37528       	94.01993       	93.11183       	92.18326       	93.64415       	93.3816        	92.089584      	94.048775      	92.4762        	92.19135       	94.19095       	92.30518       	92.216156      	94.731674      	92.689926      	92.34191       	94.6517        	93.99421       	92.90034       	94.27953       	94.2424        	92.645836      	94.24768       	93.91407       	92.563385      	95.11504       	93.43969       	92.02933       	94.61398       	93.305         	91.53881       	94.56315       	93.63071       	91.46402       	93.732414      	94.4176        	92.018135      	93.552086      	94.79865       	91.78828       	92.98135       	93.992905      	93.19571       	93.94836       	93.92457       	92.80181       	93.19133       	94.23971       	94.145134      	93.69139       	93.027084      	
93.31923       	92.95824       	93.44797       	92.91857       	92.75799       	93.18267       	93.62133       	92.87939       	92.86405       	92.773895      	93.43771       	93.12239       	92.06798       	93.345894      	93.65671       	92.3308        	92.31166       	93.39738       	93.05653       	91.53238       	93.53101       	92.86956       	91.54225       	93.05709       	92.66548       	93.03214       	92.95722       	92.457275      	93.64865       	92.95865       	91.82341       	93.92595       	93.04825       	92.80786       	92.719734      	93.18763       	92.82437       	92.68741       	92.76498       	93.589584      	93.915054      	91.839035      	93.46093       	94.25644       	91.129715      	93.06489       	94.88021       	91.595894      	92.3083        	94.62814       	92.46117       	93.11358       	94.8687        	92.94032       	92.327644      	95.78479       	92.70015       	93.00717       	95.84656       	92.71359       	91.96126       	94.8164        	93.494255      	92.02522       	94.52479       	93.20716       	91.86457       	94.626045      	92.97537       	92.05318       	94.65812       	92.59712       	92.10934       	94.891525      	92.204666      	91.82634       	93.828         	93.29875       	93.13314       	93.885124      	92.84401       	92.13152       	93.926956      	92.81152       	91.9512        	93.62247       	92.67866       	91.813034      	93.10445       	92.78341       	91.33671       	92.352776      	93.65576       	92.74277       	92.83348       	92.94014       	93.447464      	93.76407       	93.78448       	93.700386      	
93.17492       	93.774254      	93.90215       	94.21849       	93.15365       	94.08085       	93.94219       	92.3611        	92.83869       	94.51432       	93.59156       	92.84105       	94.31522       	94.04652       	93.14977       	94.538765      	94.18637       	93.8508        	94.109795      	93.52272       	94.23258       	93.63334       	93.48108       	94.1341        	94.38758       	93.58546       	93.56424       	94.35625       	93.61453       	93.04494       	93.58223       	94.04987       	94.18363       	93.58857       	94.03227       	93.55167       	93.93464       	93.35151       	94.17233       	94.248695      	93.5671        	93.392075      	94.496124      	93.80933       	92.99521       	94.32577       	94.62133       	93.52254       	93.42535       	94.51618       	93.308624      	93.893326      	94.33035       	94.214325      	93.39647       	93.5658        	94.83034       	94.29009       	93.794304      	95.56407       	93.82342       	93.12355       	94.52003       	94.15114       	93.795166      	93.6655        	93.54341       	93.64986       	94.57215       	93.64346       	93.8138        	94.838066      	92.97417       	93.17766       	94.94128       	93.46422       	93.21304       	94.76514       	93.91356       	93.85786       	94.50526       	94.10741       	94.48315       	94.12089       	93.83095       	94.63148       	93.32784       	93.76958       	94.64803       	94.32143       	93.489334      	93.85701       	94.38407       	94.15535       	93.374886      	94.284134      	94.68367       	94.62383       	94.60909       	94.32838       	
94.32643       	92.86512       	93.8979        	93.71022       	92.858955      	93.45707       	94.12755       	93.28027       	93.40492       	92.15939       	93.93682       	93.735794      	92.53942       	93.2076        	93.73401       	93.34376       	92.65742       	92.7749        	92.84675       	92.48048       	92.49574       	92.39035       	92.66322       	93.39894       	92.38261       	92.51401       	93.521065      	92.17469       	91.93547       	93.43515       	93.4403        	91.82134       	93.584236      	94.073006      	93.154625      	93.32264       	93.55296       	93.66375       	93.33839       	94.05075       	93.63411       	93.82189       	93.77758       	92.89169       	94.652985      	94.66228       	93.16141       	94.11089       	94.67655       	93.26282       	93.2993        	94.82413       	94.275024      	93.3268        	93.89486       	94.5338        	92.70529       	93.6689        	93.98294       	93.058365      	93.070076      	94.01688       	93.37739       	93.98375       	94.20623       	93.269516      	93.855835      	95.54243       	93.27706       	93.29631       	95.95414       	93.61828       	92.90854       	95.0628        	93.11453       	92.55235       	93.55055       	93.80102       	92.98002       	93.2098        	92.656815      	93.05245       	94.1202        	92.24015       	92.60519       	93.86128       	93.23011       	92.328125      	93.77858       	94.12294       	92.97419       	93.60802       	94.14969       	93.53707       	93.76566       	93.69219       	93.541016      	94.44101       	94.460785      	94.35381       	
92.059296      	92.53873       	92.502266      	93.279465      	93.248886      	92.543015      	93.552086      	93.42009       	92.46858       	93.26258       	93.49325       	92.73753       	92.83183       	93.77124       	93.4017        	92.700966      	92.4348        	92.6217        	92.727066      	92.72693       	92.28365       	93.5778        	92.432526      	92.38884       	92.365524      	93.2887        	92.86157       	92.46568       	93.82584       	93.26521       	92.34171       	93.304886      	94.03166       	92.507675      	93.41283       	94.227036      	92.39554       	93.55445       	93.9973        	92.79171       	93.32913       	93.43846       	92.88709       	93.5596        	93.38529       	93.078445      	93.72535       	93.91159       	92.40353       	92.99029       	94.19716       	92.260284      	93.437386      	94.95117       	93.73343       	93.92891       	94.18133       	93.87283       	93.86882       	94.42494       	93.75909       	94.33183       	94.428345      	92.70146       	93.642136      	94.01859       	93.98759       	93.49067       	94.27091       	94.39511       	93.696915      	93.76202       	94.119705      	94.244026      	93.749886      	93.68794       	94.53761       	93.58709       	93.439316      	94.69767       	94.20308       	94.33788       	93.96046       	93.775635      	94.203545      	93.7685        	93.382065      	94.49095       	94.081696      	93.41298       	93.441124      	94.223145      	94.14669       	93.31328       	94.014206      	94.7294        	94.39955       	94.2304        	94.2492        	94.19538       	
91.19046       	93.56836       	93.23903       	91.510796      	92.79849       	92.448845      	93.071495      	92.727455      	91.77841       	93.555145      	92.18568       	91.50109       	92.0961        	92.57127       	92.236374      	92.5284        	92.65763       	92.847496      	92.12812       	92.72096       	93.46211       	92.91695       	92.71236       	92.8512        	92.87204       	93.04904       	93.38224       	92.29798       	92.91826       	93.49906       	92.48238       	92.42844       	94.432175      	92.41192       	92.06393       	93.18457       	92.773026      	92.45085       	93.231964      	93.02618       	93.37899       	93.61169       	93.41134       	92.69659       	94.04647       	93.60928       	92.64339       	93.04268       	93.54573       	92.65083       	93.0136        	93.766205      	92.75472       	92.75056       	93.1016        	93.45226       	93.593765      	93.21016       	93.60962       	93.865425      	93.91312       	93.536865      	93.766426      	94.11675       	93.991         	93.31904       	93.66417       	93.96028       	92.947525      	93.84208       	94.334366      	94.32434       	93.531166      	93.868324      	93.68916       	93.74439       	92.95656       	93.38253       	94.05245       	93.12606       	93.77478       	94.160286      	93.34728       	93.61927       	93.00753       	93.60583       	94.04115       	92.35685       	93.020004      	93.527954      	93.17967       	92.75489       	93.33607       	94.28577       	93.32138       	93.20581       	93.42335       	93.96677       	94.085556      	93.55584       	
93.07744       	92.3951        	92.85467       	92.833786      	92.8475        	93.58117       	92.57422       	92.73113       	93.793915      	93.1108        	93.21967       	93.630974      	93.21049       	92.05004       	92.13204       	93.51664       	92.08052       	91.64539       	93.08892       	91.92602       	91.34338       	92.59261       	92.04799       	91.94438       	92.58461       	92.37761       	93.370186      	92.5644        	92.14176       	93.41443       	93.392426      	92.140884      	92.29986       	93.61327       	92.78906       	92.49934       	93.7732        	93.10648       	93.208916      	93.73138       	93.10438       	94.18151       	93.026535      	93.40518       	93.704384      	94.37744       	93.5879        	93.483116      	95.03036       	93.59462       	93.58735       	94.12334       	93.77581       	93.31551       	93.21408       	94.39375       	93.985825      	92.96658       	93.57111       	93.82645       	93.327835      	93.041466      	94.096954      	94.80872       	93.12233       	93.49617       	94.39267       	93.33683       	93.4629        	93.487656      	94.02551       	95.210976      	94.3671        	93.25896       	94.2953        	94.59614       	92.76358       	93.19377       	94.511925      	93.06633       	92.95654       	95.10332       	94.54281       	93.54281       	94.74277       	93.33166       	93.82521       	94.18408       	92.822784      	93.349174      	94.78498       	92.13818       	92.60103       	94.3326        	93.036674      	92.898544      	94.01712       	94.67624       	94.419106      	94.001114      	
93.0703        	92.08716       	92.92111       	92.868286      	92.260185      	92.438065      	92.66362       	93.12265       	93.21455       	92.267975      	93.032715      	93.24979       	92.99008       	92.00228       	93.86975       	92.74171       	91.923965      	92.990845      	93.28465       	93.148636      	92.75284       	93.360504      	93.13594       	92.91805       	92.975006      	92.4447        	93.44341       	93.03678       	92.67742       	93.775116      	93.93151       	92.47735       	93.4785        	94.34399       	92.827866      	93.227104      	93.43673       	93.164345      	93.151726      	92.81727       	92.9393        	93.213974      	92.848625      	91.950386      	93.40182       	92.93349       	92.32267       	93.126114      	93.470634      	92.53377       	92.62117       	92.82254       	93.14266       	92.530205      	92.743645      	92.55934       	92.6844        	92.44158       	93.28134       	93.180046      	93.20152       	93.37633       	92.606575      	94.02171       	94.36403       	92.175705      	92.492195      	93.858765      	92.92791       	92.40095       	93.62796       	92.903595      	93.02318       	93.66132       	92.28955       	92.70329       	93.64488       	92.29606       	92.65325       	93.37666       	92.62619       	92.257614      	94.59185       	93.12643       	92.03905       	93.98064       	93.942085      	92.368484      	93.47629       	93.614876      	92.73987       	93.34025       	93.35457       	92.612885      	93.73132       	93.898964      	92.63034       	92.73617       	93.22294       	94.257195      	
93.35906       	94.40173       	92.97405       	93.68912       	94.84972       	93.95875       	93.39716       	94.04581       	94.13124       	93.985275      	93.60425       	93.8977        	93.26954       	93.42734       	92.84777       	92.870285      	94.24975       	93.740265      	92.937485      	94.25847       	92.69378       	92.73882       	93.57785       	93.708496      	93.1964        	93.46042       	93.32699       	93.58526       	93.860016      	92.82747       	93.67252       	94.31674       	93.965225      	93.3095        	94.76927       	94.26034       	93.43791       	93.78934       	93.74809       	92.75809       	94.07386       	93.058586      	93.43604       	94.67627       	93.948975      	93.8412        	94.607216      	94.785774      	92.85125       	94.89777       	94.393524      	93.84866       	94.14471       	93.57381       	93.971176      	93.88921       	93.47092       	94.48791       	94.82602       	93.81442       	93.84643       	94.59953       	93.860825      	94.25257       	94.75687       	94.734055      	94.373856      	94.31508       	94.73556       	94.524254      	94.42017       	94.4036        	94.432495      	95.48385       	94.315765      	94.19661       	94.75186       	94.59636       	94.43837       	94.91626       	94.68376       	94.93764       	95.31026       	94.53947       	94.89977       	95.70338       	94.80296       	95.454216      	96.079704      	95.14375       	94.30305       	94.9192        	95.31473       	94.56114       	94.55627       	95.65301       	95.42407       	94.860916      	95.02194       	95.24467       	
92.69655       	92.36439       	93.118904      	92.89674       	92.85051       	93.7111        	92.715416      	93.35841       	93.725624      	93.54395       	93.10904       	93.378716      	94.38825       	93.3905        	92.78503       	94.37221       	93.29161       	93.237885      	93.45065       	93.37207       	93.948494      	92.88318       	93.263626      	93.54846       	93.36937       	92.3424        	94.26464       	94.63053       	92.600655      	92.94105       	94.496735      	93.279434      	93.60239       	93.66197       	93.464554      	93.37207       	93.221634      	93.399086      	93.93989       	94.76887       	93.927574      	93.89056       	94.83069       	93.73962       	92.63269       	94.2449        	94.00595       	93.20195       	93.56867       	94.194214      	92.850464      	93.26643       	93.1835        	93.075         	94.20589       	93.450615      	93.56196       	94.78555       	94.1642        	93.40441       	94.80313       	94.71296       	93.393936      	94.01611       	94.34752       	93.443985      	93.54372       	93.35981       	93.77128       	94.03934       	93.61446       	93.713326      	94.329994      	94.21538       	93.543976      	94.22883       	94.616135      	94.174194      	94.30192       	93.469444      	93.90809       	94.79427       	93.52898       	93.67237       	95.09998       	94.2481        	93.45222       	94.8851        	95.12493       	94.35108       	94.4332        	94.4089        	93.698715      	93.860176      	93.7128        	93.044365      	93.94052       	95.23702       	95.39277       	95.17442       	
93.62653       	93.622894      	94.0596        	93.748825      	94.07945       	93.16545       	93.42403       	94.45013       	92.77194       	93.356735      	94.21057       	93.54996       	94.03293       	94.13456       	94.30455       	93.6758        	92.77984       	93.42925       	93.91235       	93.23401       	92.972565      	93.2481        	93.853226      	93.55765       	92.5502        	93.543564      	93.25536       	93.078926      	93.155754      	93.574265      	93.8601        	92.96813       	93.361725      	94.02161       	93.04365       	92.96585       	93.26863       	93.666374      	93.542984      	93.58029       	93.076416      	93.71805       	93.622246      	92.78698       	93.48427       	93.980354      	92.78034       	93.71443       	94.09303       	93.665634      	93.32878       	93.239105      	93.170395      	93.80995       	93.69284       	92.60692       	93.63862       	94.135506      	93.25741       	94.13236       	93.94515       	93.30509       	93.67565       	93.79572       	93.81808       	93.53049       	92.880745      	93.252754      	93.271866      	92.6556        	92.09313       	93.114555      	93.34017       	93.06911       	92.96619       	93.27209       	92.67789       	93.683075      	93.24272       	92.77111       	94.00475       	93.47949       	92.917755      	94.19258       	94.361786      	93.33287       	93.613434      	94.54968       	92.94714       	93.73848       	93.76151       	93.34035       	93.17807       	93.34417       	92.81359       	93.023285      	93.26453       	93.56642       	93.43597       	93.14537       	
91.805405      	93.75905       	92.77364       	91.19849       	93.72781       	93.1684        	92.622025      	93.40074       	92.58996       	93.072105      	93.10176       	91.698296      	91.60798       	93.40197       	92.549515      	91.57157       	93.87662       	93.02685       	91.880775      	93.11945       	92.691444      	92.01497       	93.246994      	92.03746       	91.69222       	93.53368       	92.67648       	91.7211        	94.64149       	93.58312       	92.09931       	93.49772       	93.44382       	92.64098       	93.00126       	92.93201       	92.92176       	93.83247       	93.15264       	92.594345      	94.29201       	93.15128       	92.636665      	94.06233       	93.35103       	93.045235      	93.62825       	93.86931       	93.48483       	94.47848       	93.51669       	93.770676      	94.24731       	92.86783       	93.56995       	94.125275      	93.85688       	93.21371       	93.43775       	95.0053        	92.96936       	93.39791       	94.75666       	94.12703       	94.26587       	94.27792       	93.81695       	94.450836      	93.374214      	93.60353       	94.65303       	94.21349       	93.014084      	94.84697       	94.48589       	93.58696       	94.69377       	95.05212       	94.29998       	94.37098       	94.67644       	94.388115      	94.71534       	94.26456       	95.05608       	95.01651       	93.59062       	93.849846      	94.775604      	94.42842       	93.377594      	94.12997       	94.08802       	94.041466      	93.70079       	94.13245       	94.04713       	93.868965      	93.81768       	94.11888       	
94.81469       	94.32155       	93.68138       	93.46033       	94.40347       	94.219925      	92.9085        	94.65947       	94.57752       	93.04477       	93.62764       	94.75203       	93.19345       	93.67848       	94.082695      	92.93469       	94.32946       	93.69847       	92.54528       	93.45138       	94.45879       	92.694565      	92.37813       	94.43552       	93.67867       	92.35494       	93.74855       	93.583954      	92.80152       	93.20397       	93.71676       	92.714676      	93.16473       	93.28033       	92.706085      	93.2222        	92.46064       	92.16796       	92.54094       	92.12684       	92.14073       	92.231026      	92.2974        	93.17123       	92.00985       	91.91866       	92.73926       	92.633415      	92.51697       	91.63359       	92.46278       	92.34343       	91.606514      	92.20995       	92.89495       	92.05246       	92.46244       	91.99672       	92.30167       	92.66385       	91.52926       	92.816605      	92.98206       	92.016884      	92.406265      	93.06758       	91.97257       	91.72982       	92.6127        	92.62082       	91.58542       	92.00926       	92.40256       	91.97254       	91.91476       	92.90489       	92.71654       	92.6772        	92.63091       	92.111275      	93.601265      	92.69719       	92.07298       	94.45886       	93.152504      	92.53895       	93.39859       	93.66202       	92.454414      	92.69701       	93.9583        	93.09846       	92.38599       	92.96959       	92.26496       	92.30678       	92.75277       	92.72501       	92.46734       	92.346634      	
91.64023       	92.57244       	91.162056      	92.04229       	91.79032       	91.67573       	91.371895      	93.19073       	92.81304       	91.91354       	92.10596       	92.46054       	91.728645      	92.4536        	92.09285       	92.05403       	92.91724       	92.03919       	91.896355      	93.51706       	92.24177       	91.24405       	92.71567       	93.24763       	91.858315      	92.293045      	92.70324       	92.283485      	92.362305      	92.51262       	92.787186      	92.34987       	92.30102       	91.56323       	92.30232       	94.11535       	92.0347        	92.92611       	93.52816       	93.05228       	92.25941       	92.93865       	93.24182       	93.07633       	92.76592       	93.39922       	94.15709       	93.51525       	92.92365       	93.457085      	93.881134      	94.10922       	93.923584      	92.95158       	93.54426       	93.705185      	91.87374       	93.036896      	93.556854      	92.66085       	92.474815      	93.65248       	92.436386      	92.39296       	92.84467       	92.43187       	92.68511       	92.64749       	92.34961       	92.73732       	92.77202       	92.17651       	92.27072       	93.03572       	93.39831       	92.7096        	93.37495       	93.01835       	92.71559       	92.80717       	92.804695      	93.3241        	92.443146      	92.80667       	94.14587       	92.05799       	92.614555      	94.33227       	92.4341        	92.68336       	93.694664      	92.63007       	92.76948       	93.5237        	91.8986        	91.930305      	93.82679       	94.30999       	93.61707       	93.48945       	
93.581345      	93.08074       	92.92076       	93.939865      	93.17042       	93.43558       	93.60397       	93.43419       	93.968834      	94.8276        	94.11592       	93.55281       	95.54281       	94.70412       	93.2649        	94.63033       	93.46115       	93.99601       	93.88416       	93.88813       	93.721756      	94.4025        	93.11398       	94.00041       	94.444664      	93.89699       	93.47189       	94.34698       	94.35917       	93.39943       	93.76574       	95.06623       	94.79101       	94.37847       	95.01308       	95.398476      	94.05507       	94.3593        	95.16227       	93.87442       	94.33032       	94.760124      	94.59874       	95.33226       	94.51034       	94.80089       	95.44676       	95.273285      	94.637405      	95.551704      	95.89742       	93.89544       	94.87806       	95.874794      	94.47405       	94.85726       	94.98085       	94.38486       	95.4874        	95.184364      	94.19838       	95.6836        	95.91206       	94.54648       	94.87252       	95.81369       	94.67034       	93.97815       	95.222565      	94.19637       	94.69215       	94.04666       	94.30685       	94.84494       	93.78525       	95.55846       	95.36237       	95.14245       	94.52109       	94.4434        	95.42669       	93.86112       	93.618645      	94.82758       	94.00219       	93.899666      	94.30985       	94.10369       	94.404526      	93.71947       	92.9145        	94.52493       	93.83627       	92.71805       	93.75221       	94.43287       	93.609665      	92.388336      	92.187775      	92.56528       	
92.843216      	92.9149        	93.26925       	92.31041       	92.46276       	93.13257       	93.19697       	93.02677       	93.624214      	93.91853       	93.36748       	93.43139       	94.11529       	94.1842        	94.01944       	93.68424       	93.73835       	94.32752       	93.469955      	93.49779       	94.27621       	94.47405       	93.5048        	93.71768       	94.20323       	93.18507       	92.94072       	94.06942       	93.67797       	93.14144       	93.90426       	94.12134       	93.89216       	94.196205      	94.2857        	94.05477       	94.64807       	94.308945      	93.70147       	93.99438       	95.73844       	94.129234      	93.62941       	95.31837       	94.05241       	94.76648       	94.89903       	94.234955      	94.8221        	94.099556      	94.05318       	94.84386       	94.113686      	93.03584       	94.65451       	93.97673       	93.02165       	94.653595      	94.01934       	93.55591       	94.049034      	93.73141       	93.93261       	93.31926       	93.57939       	93.657646      	93.9523        	93.422005      	93.69441       	94.91142       	92.67806       	93.517685      	94.54496       	93.846         	92.7728        	94.00047       	93.817825      	92.37939       	92.64395       	93.76576       	92.45969       	92.81082       	93.307915      	93.220894      	93.20668       	93.28228       	93.186226      	93.49525       	92.99484       	91.891914      	93.38211       	92.793526      	91.31063       	92.91418       	92.78726       	92.24641       	92.19458       	92.881195      	92.942665      	92.859856      	
91.6069        	92.25178       	91.35388       	92.06756       	93.03592       	91.57811       	91.98499       	92.807076      	91.86007       	91.82238       	93.175156      	92.867805      	92.41625       	92.93128       	93.84994       	92.64167       	91.93147       	93.20673       	92.00722       	92.2646        	92.62768       	92.17451       	92.64167       	92.089485      	92.031746      	92.96346       	92.36691       	91.89378       	93.324326      	93.30341       	91.92132       	92.85112       	93.68639       	92.55683       	92.61418       	93.69071       	91.95135       	92.52429       	92.69076       	91.35456       	92.68947       	91.73458       	91.39399       	93.1118        	92.250984      	91.138916      	93.50168       	92.42537       	90.91739       	93.38881       	92.781         	90.33886       	92.50473       	94.28296       	91.49162       	92.76795       	93.7559        	91.84746       	92.59298       	92.82313       	92.25453       	93.14345       	92.93462       	91.84035       	93.41765       	93.556274      	91.40084       	93.18522       	93.83664       	92.14476       	92.0678        	93.93774       	92.2881        	92.23571       	93.82992       	92.813515      	92.74967       	92.921875      	93.11808       	92.26801       	92.61979       	91.75444       	92.96378       	92.76015       	91.66737       	92.61366       	92.89776       	91.53619       	91.18183       	92.066574      	91.755615      	91.92116       	91.79692       	92.29077       	91.62931       	91.549065      	91.76929       	91.61281       	91.63699       	91.015396      	
93.1405        	91.536545      	92.91208       	93.2869        	92.4165        	92.220535      	92.09981       	92.7585        	92.53924       	92.30797       	92.88135       	93.072784      	93.2835        	93.188156      	93.09422       	93.851685      	92.82739       	93.39279       	94.15871       	93.53381       	92.967545      	93.40469       	94.122086      	92.68111       	93.64782       	94.22246       	92.78114       	93.12751       	93.91313       	93.25139       	93.52905       	93.62253       	93.06595       	93.354         	93.80505       	93.851105      	93.09131       	93.655014      	93.24486       	92.731155      	93.08676       	93.97575       	93.552505      	92.83907       	94.110886      	93.727         	93.31144       	94.1231        	93.54305       	92.712944      	93.70328       	93.686455      	93.674286      	93.75654       	94.0426        	92.707405      	94.549515      	94.61153       	92.99968       	93.76575       	94.721565      	93.324165      	93.05278       	94.981026      	93.45883       	92.27971       	93.476105      	93.45113       	92.01667       	93.925         	93.16944       	92.81143       	93.912155      	92.72395       	92.48475       	93.95167       	93.42615       	92.413284      	94.14839       	93.10951       	92.69323       	93.56201       	94.080925      	92.62718       	93.16408       	94.034515      	93.23687       	93.62167       	93.3776        	92.41488       	92.77724       	92.54463       	91.59525       	92.71566       	93.17435       	92.14975       	90.82685       	91.52608       	92.54308       	93.345085      	
91.93019       	91.61907       	92.502075      	92.63614       	91.944374      	92.466324      	93.08333       	92.4644        	92.75965       	92.797516      	93.48135       	93.78732       	92.840034      	92.52754       	94.20751       	92.88699       	92.26048       	93.03266       	92.55997       	92.07971       	92.8962        	92.99369       	92.45057       	92.53024       	93.08804       	93.022865      	93.30893       	92.94866       	93.19213       	93.17575       	92.22138       	93.312904      	93.25306       	92.80143       	92.87985       	93.10936       	93.18808       	94.32929       	93.43987       	93.770744      	93.40678       	93.32204       	93.54715       	94.51102       	94.08212       	93.26393       	94.83465       	93.71994       	92.94024       	93.864944      	94.34706       	93.65157       	93.11312       	93.61351       	93.34274       	93.087814      	93.464424      	93.39481       	92.72382       	93.19979       	92.670204      	92.98455       	93.37099       	92.898315      	93.814575      	93.80073       	93.61297       	92.61742       	93.850555      	93.605415      	92.6611        	94.58831       	93.52507       	92.872925      	94.476944      	93.72409       	93.24928       	93.94422       	92.989         	92.665596      	94.23705       	93.95356       	92.16686       	94.14849       	93.35255       	92.133545      	94.04179       	94.31327       	92.46915       	93.43385       	94.15966       	92.89769       	94.43788       	94.50085       	92.603165      	93.991135      	94.9706        	94.436195      	93.555595      	92.59637       	
91.63481       	92.40868       	91.43017       	92.194016      	91.27387       	92.51997       	92.49053       	91.29445       	92.61687       	92.139725      	91.91487       	92.21488       	94.14898       	93.07653       	92.93123       	93.53573       	93.1733        	93.44756       	92.79799       	92.8291        	93.50164       	92.23661       	92.41203       	93.974174      	92.63209       	92.736015      	93.679214      	93.62601       	92.52912       	92.9915        	94.04236       	92.80112       	93.04631       	93.091446      	93.42477       	93.36275       	92.52136       	93.12005       	93.21069       	92.916595      	92.20531       	93.113846      	94.14607       	92.92957       	93.030045      	94.725235      	93.54944       	93.61496       	93.681755      	93.8694        	93.7503        	92.79269       	93.7813        	94.23837       	93.57624       	93.08613       	95.08749       	95.092354      	93.23341       	94.004395      	94.17464       	93.75633       	94.09433       	93.69603       	93.250244      	94.685295      	93.6755        	92.82101       	94.68608       	94.20077       	93.575806      	93.73296       	94.66316       	94.06319       	93.850945      	94.79223       	94.5293        	94.60462       	94.08735       	94.50927       	94.3769        	94.41257       	95.07198       	94.48462       	95.052605      	95.373955      	94.08249       	95.085884      	95.66906       	93.89738       	94.7469        	96.402596      	94.71486       	93.77965       	95.51247       	94.767876      	93.67685       	93.78962       	94.3077        	95.107735      	
91.773994      	91.92303       	92.19697       	91.16309       	92.290436      	92.60892       	90.44519       	91.538994      	93.0813        	91.25774       	91.66277       	93.32826       	91.80876       	91.48644       	93.10106       	93.111946      	91.83147       	92.87016       	91.59798       	92.63127       	93.34285       	91.815506      	92.43505       	94.39377       	92.35336       	92.30159       	94.49022       	92.15166       	91.6139        	93.76091       	93.430916      	92.52087       	93.66637       	92.931854      	92.71723       	93.749146      	92.2639        	92.257454      	94.53114       	92.091545      	91.46289       	95.656456      	92.74646       	91.90648       	95.28553       	93.578125      	91.570724      	93.6329        	93.94018       	92.029976      	93.735916      	93.87748       	92.55341       	94.57359       	93.94861       	91.912605      	94.70942       	94.12187       	92.19374       	95.2605        	95.85705       	92.70834       	93.91286       	96.19397       	93.010826      	94.45562       	96.32382       	93.774284      	93.929634      	95.45574       	93.805305      	93.62698       	95.40248       	93.74942       	93.30185       	95.01911       	93.48402       	92.841255      	95.66212       	94.16885       	93.62488       	95.30916       	94.57553       	94.871635      	95.39855       	94.481804      	94.66345       	96.0137        	94.08988       	94.21428       	95.327385      	94.737495      	93.70519       	94.46333       	95.16228       	93.83436       	93.29986       	93.89474       	94.58749       	94.691864      	
93.619995      	90.55929       	93.33183       	92.07918       	91.44286       	92.0912        	92.69661       	91.45797       	92.39103       	92.19556       	92.113594      	92.960045      	92.37045       	91.96171       	92.96615       	93.23731       	92.960464      	93.23709       	92.796036      	92.80628       	93.4445        	91.82703       	93.236115      	93.02479       	93.26817       	92.46631       	92.830315      	93.79036       	92.984604      	92.53812       	93.7339        	93.217636      	92.51201       	93.059654      	93.310005      	92.51569       	92.80822       	92.75713       	93.43492       	93.17166       	92.26514       	93.134964      	93.23727       	92.96312       	92.90113       	93.51115       	94.29296       	92.077446      	93.84521       	93.55212       	92.722824      	93.13468       	93.11415       	93.50142       	93.653656      	93.79426       	93.286095      	93.91366       	93.41264       	92.898544      	94.51865       	94.826256      	93.36132       	93.70893       	94.73461       	93.06519       	93.417816      	94.7795        	93.36187       	93.97393       	93.45539       	93.40337       	94.6743        	94.76933       	93.261116      	92.72542       	94.82985       	92.569374      	92.76217       	95.22831       	92.776505      	92.4158        	93.97834       	92.89505       	92.25176       	93.448906      	93.66055       	92.40527       	93.43725       	93.531265      	92.602295      	93.69858       	93.131134      	93.10457       	93.51546       	94.14979       	92.57182       	91.70357       	91.76999       	92.42306       	
92.92067       	93.485565      	92.749115      	93.37036       	93.61278       	91.897545      	92.93781       	93.73371       	91.61114       	91.97142       	94.106766      	92.28307       	92.407875      	94.19174       	93.16552       	93.23305       	94.45228       	93.4184        	93.69422       	94.746056      	93.149765      	93.606926      	94.37353       	93.25753       	93.82555       	93.720215      	94.06299       	93.35332       	93.48575       	93.919846      	94.06375       	93.92476       	94.37782       	94.11409       	94.180824      	94.77139       	93.665146      	95.519936      	94.60847       	94.456795      	94.38569       	94.80562       	94.503525      	93.726555      	94.502914      	94.16249       	94.076584      	93.896835      	94.01865       	94.12728       	94.38054       	93.5774        	93.15219       	94.52528       	93.62618       	93.95163       	94.79721       	94.60631       	93.99688       	94.311874      	94.39022       	93.82491       	93.575645      	95.13714       	94.62833       	94.63208       	95.174675      	94.073746      	94.15571       	94.30627       	92.95023       	93.77121       	94.29687       	93.95506       	92.795235      	94.38471       	94.37149       	92.50005       	95.20287       	94.31403       	93.175446      	94.38146       	95.23699       	93.85806       	93.87796       	94.77886       	93.601555      	94.16702       	94.33095       	94.04518       	94.10262       	93.208855      	93.42306       	94.84684       	93.79967       	92.80701       	93.56253       	94.056046      	93.89174       	93.47203       	
93.63874       	93.14399       	92.86386       	94.7978        	92.97531       	92.32296       	93.941574      	93.12505       	91.77326       	94.63588       	93.050835      	92.39013       	93.1923        	93.06065       	93.4132        	93.38573       	93.22213       	94.03614       	94.400276      	93.42302       	93.35754       	94.78631       	93.74911       	92.6809        	94.27623       	93.9518        	94.06355       	94.42545       	94.28536       	94.8044        	94.99781       	94.32091       	93.894936      	94.83891       	94.45936       	93.08395       	95.00473       	95.00664       	93.38888       	95.52318       	95.153564      	94.26388       	95.030975      	94.737465      	93.82007       	94.78226       	94.21314       	93.24144       	95.199135      	95.35469       	93.49064       	95.13216       	95.20846       	93.47183       	94.404594      	94.40853       	93.57992       	94.67102       	94.756485      	93.92198       	94.86711       	93.62642       	94.12427       	96.126755      	94.190186      	93.9958        	95.63362       	94.31714       	93.29068       	95.56436       	94.30671       	93.9742        	95.10371       	95.13719       	94.37382       	95.42345       	94.38204       	94.05679       	95.342094      	93.69926       	93.84005       	95.3575        	94.20491       	93.745         	95.78676       	94.53541       	93.28467       	94.59375       	94.43682       	93.5522        	94.66411       	93.682915      	94.26872       	95.6253        	94.059906      	92.75501       	94.35947       	94.89008       	94.75534       	93.916824      	
91.525764      	92.27768       	91.77755       	90.97381       	91.89469       	91.64417       	91.02282       	91.77624       	91.5533        	92.09888       	91.80864       	91.26049       	92.338425      	92.03106       	91.8409        	92.0337        	93.26083       	93.011894      	92.64339       	92.58601       	93.26046       	93.326454      	92.032486      	92.74571       	93.30118       	92.6798        	92.260994      	93.01524       	92.40751       	92.08566       	92.40531       	92.91341       	93.09632       	92.56557       	92.39429       	92.88726       	93.08835       	92.45045       	92.31029       	93.40661       	92.615074      	92.02555       	92.48031       	92.73093       	92.851364      	92.13732       	93.08171       	92.63424       	92.31103       	91.929184      	93.04805       	92.69002       	92.653694      	92.64547       	93.72726       	93.17884       	92.67292       	94.04089       	93.44249       	93.40337       	93.20328       	93.66801       	93.03124       	93.40775       	92.717514      	92.21461       	93.889206      	92.47792       	91.92423       	93.82602       	93.05484       	92.47184       	93.40972       	93.03209       	92.513336      	92.75544       	93.65268       	93.33162       	93.06019       	92.901436      	92.958244      	93.20569       	92.785835      	92.9133        	93.825966      	92.870155      	93.02791       	93.72123       	93.37682       	92.517136      	92.94128       	93.49989       	93.68217       	92.84779       	92.80728       	94.02601       	93.872696      	92.86607       	92.252686      	92.16623       	
92.70056       	92.903984      	92.11807       	92.433685      	92.62208       	91.86365       	92.694084      	92.98473       	91.44058       	91.64018       	92.71989       	91.66096       	91.28608       	92.77783       	91.871704      	91.58772       	93.36027       	92.98271       	92.94804       	93.27133       	92.54987       	93.235756      	94.29512       	92.8393        	92.59693       	94.42924       	92.57863       	92.26417       	93.69608       	93.787766      	92.80506       	93.851524      	93.38036       	91.69202       	92.86358       	92.60175       	92.01835       	93.533745      	93.307625      	92.35225       	93.875015      	94.96943       	92.674126      	93.563545      	94.20016       	92.7157        	93.645805      	94.056465      	93.8813        	94.09368       	94.083534      	92.5161        	93.429436      	94.46469       	92.814255      	93.34077       	94.45659       	93.68987       	93.939316      	94.25761       	94.446304      	94.27075       	93.90743       	94.13866       	94.151695      	94.086174      	93.64727       	92.69995       	93.88364       	93.797714      	92.290764      	93.99573       	94.05494       	92.3809        	93.769295      	94.20977       	92.722115      	93.37007       	93.970894      	92.33823       	93.57867       	93.81419       	92.49645       	94.004776      	94.563065      	92.75317       	93.06955       	94.43588       	92.94142       	92.6053        	93.37504       	92.7095        	93.49449       	93.3506        	92.860596      	93.05647       	93.52808       	93.838394      	93.632645      	92.70159       	
93.57327       	92.08211       	91.93689       	93.19538       	92.41419       	92.41983       	92.15805       	92.76402       	92.23104       	92.80115       	92.43237       	92.151764      	92.19608       	91.90929       	92.67296       	92.70942       	92.12968       	92.9934        	94.03499       	93.75851       	92.94298       	94.289505      	93.84775       	92.75374       	93.97962       	93.62289       	93.0161        	93.54924       	93.51404       	93.862656      	94.72901       	93.8131        	94.684235      	94.77588       	94.09468       	93.265015      	94.674675      	94.04219       	93.72131       	94.17834       	94.15539       	93.28007       	94.14493       	93.962944      	93.79257       	93.856575      	93.555916      	93.669876      	94.24012       	94.30725       	93.61536       	94.96345       	94.928474      	93.30885       	95.841835      	95.3759        	94.55687       	95.60176       	96.50513       	95.52124       	95.733925      	95.94474       	95.901596      	95.5691        	95.75054       	95.731804      	95.314156      	95.06987       	94.78848       	95.08222       	95.340195      	94.38808       	94.07915       	95.260445      	95.06276       	93.65059       	94.17795       	95.08513       	94.005806      	92.88412       	95.20075       	94.66759       	93.07691       	94.73713       	94.625824      	94.08346       	94.75267       	93.99635       	93.95797       	94.51309       	93.39547       	93.16157       	94.825325      	93.16346       	93.28975       	93.882576      	94.31422       	93.67264       	93.68436       	93.523224      	
93.58516       	91.199905      	91.82535       	94.20851       	91.56742       	91.25195       	93.70886       	90.94958       	90.67644       	93.597046      	90.9308        	90.80118       	93.825226      	91.931244      	91.74506       	93.64336       	92.488525      	92.59619       	93.993095      	92.231964      	93.01697       	94.39116       	92.94044       	93.054405      	94.24281       	93.194466      	92.09709       	93.34821       	93.5304        	92.0938        	93.27554       	93.52783       	92.98141       	92.968         	93.385376      	93.6972        	93.078766      	93.02493       	93.869705      	93.41211       	93.82289       	93.234406      	93.50685       	94.224815      	92.54078       	93.35921       	94.37251       	93.968475      	93.504845      	93.06406       	92.87263       	93.57806       	92.76763       	92.172516      	93.34032       	94.224396      	92.59318       	93.12761       	93.943886      	93.87501       	94.03958       	94.77531       	94.42055       	94.88105       	93.98238       	94.515816      	94.077934      	94.29183       	93.62853       	94.17749       	94.301636      	92.88517       	93.53789       	94.72258       	93.20014       	94.08285       	94.354034      	93.24744       	93.45966       	93.966194      	93.09542       	93.222336      	93.647255      	93.07858       	93.64286       	94.430855      	92.502266      	93.97096       	94.94585       	92.34778       	93.191315      	94.28338       	92.7533        	93.76972       	93.89143       	93.36382       	93.143814      	93.26147       	93.27247       	93.00883       	
93.08863       	91.54398       	92.24384       	92.52654       	91.98783       	92.35857       	92.39616       	92.67745       	92.18225       	92.6167        	92.20886       	92.72274       	92.27904       	92.08292       	93.17587       	92.71941       	91.99179       	93.07657       	92.95679       	92.61308       	92.59223       	93.5677        	93.20393       	92.49578       	92.77067       	92.761246      	92.700066      	92.69172       	92.610176      	92.14937       	93.50778       	92.58536       	91.98154       	93.63289       	92.373245      	91.70504       	93.77979       	92.77205       	92.08013       	92.86182       	93.14318       	92.04742       	92.85981       	93.10593       	92.41722       	93.43171       	93.02039       	92.0045        	93.68153       	92.55748       	92.84582       	93.46301       	93.85062       	92.988335      	93.14784       	94.75618       	94.787926      	94.25465       	94.70473       	94.80017       	93.790474      	94.2546        	94.36946       	94.89342       	94.19348       	94.153046      	94.385704      	94.6362        	93.83965       	93.04149       	93.919266      	94.61677       	93.40065       	93.842155      	95.61071       	93.504524      	93.65443       	94.48033       	93.146515      	93.706924      	94.09978       	92.72139       	93.43566       	94.45          	92.14588       	93.54174       	93.98304       	92.18277       	93.07703       	94.53756       	92.864426      	92.82647       	93.77079       	92.5024        	93.79642       	94.86149       	93.33055       	92.67134       	92.64465       	93.47505       	
93.13548       	92.145355      	93.397865      	91.93278       	91.79835       	92.41777       	92.67897       	91.76371       	92.585686      	92.60685       	92.437614      	91.95296       	91.47442       	92.6551        	92.6378        	91.58598       	92.698296      	93.72953       	92.19959       	92.56898       	94.9273        	92.820915      	92.45765       	93.978134      	92.81007       	91.334785      	93.833145      	93.2413        	92.45215       	93.24576       	92.971         	92.824715      	92.85887       	92.72518       	91.81682       	93.45098       	92.63008       	92.439545      	94.638054      	93.31125       	92.76208       	94.854095      	93.4222        	92.71467       	93.715034      	93.45836       	92.64966       	92.88726       	93.340836      	93.085655      	93.76034       	94.13738       	93.26188       	94.4316        	94.92641       	92.770454      	94.62756       	95.428764      	93.212944      	94.43211       	95.48646       	94.207794      	93.59882       	95.878746      	94.16834       	93.42067       	95.94113       	94.189865      	93.576645      	94.78807       	93.61044       	93.89486       	93.89307       	94.12585       	94.0138        	94.18433       	93.74671       	93.5137        	94.04285       	94.15097       	92.692055      	94.483345      	93.75435       	93.29066       	93.339226      	94.71955       	92.7166        	93.347244      	93.86702       	93.47172       	93.079834      	93.28708       	92.58192       	94.14241       	93.624985      	92.57052       	93.52154       	94.45655       	94.19886       	93.745895      	
92.394615      	92.91283       	92.72719       	92.613106      	92.47006       	92.83593       	92.3049        	92.675064      	93.3658        	92.827644      	92.86125       	91.74561       	92.488655      	93.16544       	91.73038       	92.89546       	93.47777       	93.16098       	93.75308       	93.41288       	93.681625      	93.56384       	92.80859       	93.56265       	93.443474      	93.85231       	92.30623       	93.81436       	93.598175      	91.80246       	93.2383        	93.74924       	92.965256      	93.49377       	93.35113       	93.13616       	93.31328       	93.244354      	93.01197       	93.36768       	92.75032       	92.22979       	94.23449       	93.48024       	91.32373       	93.75572       	93.06859       	91.606285      	93.125694      	92.9098        	92.77908       	93.12751       	93.898895      	93.06615       	94.15073       	93.11052       	93.48002       	94.916595      	92.63142       	92.70417       	95.17264       	93.306854      	92.676155      	95.53969       	94.18217       	93.34115       	94.944244      	94.165596      	93.36211       	93.85836       	93.636665      	93.32506       	93.934784      	93.7681        	93.65091       	94.06904       	93.12711       	93.381256      	93.91272       	93.6932        	92.43273       	93.39885       	94.35186       	92.465836      	93.63565       	94.70024       	93.166985      	93.19477       	93.73026       	92.96651       	93.68042       	93.712006      	92.97032       	94.154434      	94.25012       	92.43442       	92.25864       	93.265656      	93.7383        	93.60393       	
92.927734      	93.24489       	92.52062       	93.04579       	93.681656      	92.58758       	93.1988        	94.10192       	93.03875       	93.35796       	93.14239       	92.955414      	93.09266       	93.43082       	92.47717       	93.562065      	93.60509       	92.523926      	93.54735       	93.48796       	92.51568       	93.12402       	93.61557       	93.24974       	92.66143       	92.15266       	93.78423       	92.68497       	92.69563       	93.10933       	93.18956       	93.62284       	92.420166      	93.06104       	93.74086       	92.91124       	93.109566      	93.28403       	93.24517       	92.3742        	92.4196        	93.70594       	93.08948       	91.96269       	93.154305      	93.465645      	92.66222       	93.179535      	93.361206      	92.69959       	93.16729       	93.06706       	92.55401       	93.723274      	92.670166      	92.70545       	93.90939       	93.939835      	93.18696       	95.15555       	95.2089        	93.55464       	95.3061        	95.45827       	94.09457       	94.726555      	94.21552       	94.49745       	95.27365       	93.94617       	92.94508       	95.047325      	94.10141       	92.31856       	95.28926       	94.69203       	93.219765      	94.57549       	94.48483       	93.4202        	93.53786       	94.9812        	94.09654       	93.25195       	93.80835       	93.357376      	93.77919       	93.79295       	92.915474      	93.16513       	94.00357       	92.21384       	92.826706      	94.696884      	92.85632       	91.956314      	93.33306       	94.48739       	94.4819        	93.71601       	
92.701584      	92.2815        	92.64563       	92.81235       	92.01244       	92.45944       	92.31923       	91.24906       	93.10251       	92.771805      	91.23113       	93.038994      	92.732796      	91.34687       	92.727585      	93.19332       	92.04481       	93.20147       	92.415054      	92.053276      	92.625946      	92.6329        	91.598724      	93.401695      	94.13152       	92.117905      	93.33069       	94.10851       	91.6735        	92.51701       	94.27148       	91.91548       	92.22165       	93.18288       	92.28983       	93.02746       	93.243416      	92.629425      	93.53331       	93.654526      	92.174484      	93.04835       	93.28076       	92.42988       	92.73345       	93.84679       	92.5995        	93.02836       	93.62381       	93.5665        	93.03948       	93.307816      	93.37545       	93.67855       	93.51187       	93.425674      	93.967         	94.65311       	93.84682       	94.3788        	94.63376       	94.06053       	94.82594       	94.6984        	94.79909       	94.576836      	94.203415      	94.60692       	94.528         	94.43038       	94.51614       	94.55832       	95.20731       	94.85545       	93.40906       	94.77846       	94.89346       	94.17176       	94.36142       	94.31927       	94.345535      	93.18013       	94.37166       	94.15693       	94.31703       	94.472046      	93.200386      	94.064995      	93.82214       	92.957016      	94.028275      	94.20708       	93.11345       	93.12794       	93.691895      	93.72908       	93.76323       	93.713295      	93.49339       	93.52819       	
93.39906       	93.53417       	93.146645      	94.21562       	92.85697       	92.92107       	93.20088       	92.8493        	93.27266       	91.96795       	92.65671       	92.86332       	92.59514       	92.298134      	92.5899        	93.40864       	92.530075      	92.93795       	92.83825       	93.09147       	93.467155      	93.00306       	93.31669       	93.69823       	93.42482       	93.31215       	93.828896      	93.600105      	93.4397        	93.07792       	93.21342       	93.37385       	93.3701        	92.998795      	93.62683       	92.74659       	92.70446       	93.58957       	92.95785       	92.92099       	93.201645      	92.12748       	92.17563       	93.387726      	92.35295       	92.349594      	94.50488       	92.71847       	92.20921       	93.52052       	92.74156       	92.80481       	93.76774       	93.493866      	93.915985      	94.216644      	93.66635       	93.55737       	94.50212       	94.24177       	93.71678       	94.65527       	94.64131       	93.742935      	94.60511       	95.07237       	94.60686       	93.27145       	94.24257       	93.85947       	93.07592       	94.485054      	94.37886       	93.49129       	94.39403       	94.14046       	92.57293       	93.18807       	94.60267       	93.6078        	93.51631       	93.749054      	92.39179       	94.29764       	95.382614      	92.49849       	94.04191       	94.81058       	91.87483       	93.208244      	94.92929       	91.90718       	92.809006      	94.28344       	93.24529       	92.718834      	93.882034      	94.45684       	93.77644       	93.26617       	
92.44544       	92.249565      	91.64339       	92.788216      	93.03939       	92.02498       	92.3919        	92.91495       	91.4082        	92.15626       	91.27327       	91.77546       	92.75121       	91.40923       	91.46022       	92.58134       	92.497604      	91.98371       	92.62333       	93.24475       	91.81181       	92.86503       	92.99726       	93.11019       	93.69722       	92.98326       	92.125565      	93.34566       	93.86014       	92.73853       	93.443695      	93.93001       	92.50621       	93.289955      	92.659966      	93.0456        	93.622765      	92.93072       	93.14034       	93.4662        	93.558136      	93.79527       	93.30787       	94.045654      	93.85129       	92.849205      	93.55017       	93.587204      	92.82466       	93.80998       	93.35301       	93.44201       	93.90567       	92.91488       	93.87564       	95.02787       	94.446526      	93.9502        	95.81963       	95.53999       	93.894905      	95.189766      	94.94744       	94.35339       	95.56913       	94.022         	93.55052       	95.04111       	93.349655      	93.15889       	94.973526      	94.13661       	93.11499       	94.31452       	94.20216       	93.796005      	94.3741        	94.285515      	93.94012       	95.33269       	93.90034       	93.88284       	95.14882       	94.30383       	94.19837       	94.57942       	94.254684      	93.79423       	93.8055        	94.07834       	93.671005      	93.70222       	92.98719       	92.86979       	93.38638       	93.821175      	93.7992        	93.18898       	92.6903        	92.45926       	
91.66708       	91.63306       	92.238655      	91.819855      	92.38114       	92.38976       	92.509636      	92.46567       	92.517426      	92.97639       	92.80915       	92.10323       	92.2279        	92.5489        	92.47762       	91.71776       	92.75401       	92.933105      	91.706024      	93.02763       	93.22249       	92.15683       	92.84517       	93.57927       	92.998695      	93.18632       	92.97519       	93.01997       	93.54057       	93.321846      	92.072174      	94.01603       	93.75694       	92.87642       	93.15002       	92.518875      	92.12683       	92.61818       	91.82103       	91.81192       	92.97004       	92.26509       	92.41439       	92.32803       	92.27664       	92.56136       	92.87706       	92.26807       	93.01637       	92.27367       	91.55643       	92.81238       	92.3941        	92.38087       	92.73174       	93.61016       	93.18796       	92.99263       	93.66349       	93.8924        	93.959305      	94.277725      	93.75937       	94.1115        	94.17948       	93.61479       	93.005745      	94.75662       	94.152885      	93.33512       	94.544426      	94.18222       	93.53793       	93.7965        	94.71207       	94.041855      	93.94321       	93.995895      	93.4178        	93.91772       	93.86016       	93.19076       	93.46153       	94.171455      	92.51538       	93.43365       	94.43583       	93.23449       	93.54456       	93.30771       	92.78829       	93.896614      	92.90931       	93.17005       	93.929436      	94.15723       	93.36119       	93.56184       	93.81246       	93.883224      	
92.83919       	91.06174       	91.97359       	90.759384      	92.33864       	92.50788       	91.418915      	92.09343       	92.84984       	91.731         	91.101234      	92.509895      	92.74877       	91.467606      	92.07661       	92.490715      	91.70227       	93.086105      	91.834564      	91.48515       	93.16719       	91.938446      	92.15974       	93.54027       	92.93795       	93.15461       	93.58914       	93.17728       	92.964485      	93.555145      	92.843056      	93.06433       	93.880165      	92.54606       	92.7966        	93.50159       	92.84703       	93.297005      	93.78809       	92.82885       	93.46666       	93.09831       	92.852486      	93.22863       	93.77467       	93.17464       	93.401405      	93.24202       	93.59131       	93.2367        	93.510956      	93.23841       	93.49251       	93.66849       	93.432526      	93.12683       	94.06265       	94.19914       	94.60326       	94.82303       	95.06441       	94.7911        	95.10155       	94.40018       	94.41893       	94.770386      	93.3423        	94.09592       	94.32874       	94.02067       	93.958786      	93.93762       	94.393906      	93.820175      	94.33403       	94.428055      	93.9608        	93.77823       	93.021774      	93.39938       	94.182945      	93.854965      	92.96071       	94.24247       	94.061935      	92.90576       	94.07211       	93.315346      	92.331795      	93.7661        	92.975235      	92.68059       	94.22126       	93.643486      	92.707275      	94.088486      	94.83367       	94.345245      	93.38691       	92.728806      	
91.98197       	93.44371       	92.16849       	92.30855       	93.1033        	92.59022       	91.45112       	92.13102       	91.85381       	91.367805      	91.95102       	91.9495        	91.97791       	92.75313       	92.05488       	92.18251       	93.58632       	93.62281       	92.29806       	93.30667       	93.156265      	92.28212       	92.95651       	93.50341       	92.82851       	93.579216      	93.11705       	91.96069       	93.99824       	93.922226      	92.024956      	93.943115      	93.716034      	92.02205       	93.170334      	93.50167       	92.5992        	93.649376      	93.83173       	92.72838       	93.70877       	93.86767       	92.639366      	93.416214      	94.69695       	93.26904       	93.23397       	95.37459       	92.93808       	93.07036       	93.72412       	93.37957       	93.174286      	93.11949       	93.18823       	93.56685       	94.20089       	93.01018       	93.887886      	94.54415       	93.73409       	94.44127       	94.98751       	93.864784      	94.52131       	94.54065       	93.1523        	94.52368       	94.7329        	93.789474      	93.92701       	94.51107       	94.91269       	93.99645       	94.790215      	94.479866      	94.79017       	94.620316      	94.19784       	93.713974      	95.20345       	95.227554      	93.74053       	95.01457       	94.57089       	93.58006       	93.78697       	94.30895       	93.89764       	93.96469       	94.4425        	93.88972       	93.99799       	94.308075      	94.10391       	93.62036       	94.14592       	94.63366       	94.47575       	94.28321       	
92.68243       	92.298775      	91.9723        	92.9808        	92.58519       	91.78252       	92.871704      	92.863174      	92.52962       	92.61614       	92.534996      	93.04387       	92.848625      	92.43532       	92.55201       	92.628555      	92.41194       	91.66533       	93.11662       	92.63091       	92.29712       	92.46677       	92.6877        	92.52538       	93.69026       	92.899254      	93.16745       	94.09773       	92.95959       	92.84724       	93.9556        	92.5256        	92.975235      	92.937706      	92.66683       	93.125565      	92.705284      	92.74833       	93.19409       	93.19899       	93.2036        	92.81747       	93.71432       	93.66061       	92.77971       	93.151855      	93.62345       	93.03674       	93.429855      	92.80041       	93.17437       	93.19707       	92.83125       	93.281624      	93.4598        	93.1303        	93.54398       	93.93412       	94.22856       	94.507484      	94.2694        	94.05618       	94.65503       	94.19695       	93.61475       	94.194016      	94.47973       	94.51468       	94.63953       	93.98613       	94.62093       	94.5571        	93.32963       	94.761635      	94.90974       	94.21563       	94.20496       	94.01866       	94.390976      	93.95633       	94.13525       	94.60765       	94.1377        	93.710175      	93.36274       	93.37099       	93.60645       	93.145546      	93.39136       	93.58729       	93.5194        	93.83979       	93.66594       	93.94817       	94.16507       	93.03908       	92.62104       	93.060455      	93.88571       	93.85523       	
92.506226      	92.43492       	92.1751        	92.628784      	92.32405       	92.561775      	92.737114      	92.03674       	92.559166      	92.288925      	91.92123       	91.574844      	90.93935       	92.03499       	92.09286       	91.48659       	91.47386       	92.58222       	92.04424       	92.05983       	92.59347       	92.84199       	92.55734       	92.770874      	92.77309       	92.97733       	93.57734       	93.1111        	92.465294      	93.87019       	93.293175      	92.128914      	93.27141       	94.00898       	92.54013       	92.40396       	93.23447       	92.992744      	92.86315       	93.608925      	92.414505      	93.0242        	93.43904       	92.295494      	92.90998       	93.65053       	92.94179       	92.54269       	93.42062       	93.059814      	92.506         	92.78758       	93.004555      	93.19938       	93.64881       	93.64432       	93.71547       	94.510345      	93.778244      	94.158775      	94.65128       	93.721146      	93.896866      	93.31104       	93.54811       	93.44934       	93.62398       	93.36862       	93.32752       	93.76043       	93.14954       	92.961075      	94.80718       	93.57146       	93.724335      	94.647354      	94.07365       	93.369095      	95.20117       	94.357025      	93.276054      	95.553604      	93.726845      	92.86929       	96.244995      	94.51616       	92.92884       	95.259224      	93.77498       	92.41326       	94.68643       	93.4191        	92.50928       	94.50338       	93.84729       	92.6725        	93.4568        	93.89409       	93.619835      	92.98959       	
92.50489       	92.78133       	93.03431       	92.36583       	92.74986       	91.95025       	92.76881       	93.327675      	91.71674       	92.54333       	92.71365       	91.96081       	91.678055      	92.7421        	91.3536        	91.46744       	92.4726        	92.330185      	92.25521       	92.99979       	92.43815       	92.34036       	94.14263       	93.072845      	92.517334      	94.39639       	93.55932       	92.59152       	93.509735      	93.27612       	92.819595      	93.71011       	92.77022       	92.35936       	93.79956       	92.85131       	92.621826      	93.84223       	93.50908       	92.44225       	94.14033       	93.485054      	92.745804      	93.71497       	93.91654       	92.77129       	93.94282       	93.88365       	93.63515       	93.922806      	93.8401        	93.39387       	93.37845       	94.12347       	92.92813       	93.32146       	93.65532       	94.05987       	94.56064       	94.11171       	94.76883       	94.72768       	94.771965      	94.16422       	93.69949       	94.43928       	93.73815       	93.18849       	94.30131       	93.872856      	93.07987       	93.75003       	94.20858       	93.32849       	93.932785      	95.174805      	93.35942       	93.42168       	95.455795      	93.60315       	92.4013        	94.285576      	94.17927       	93.462456      	94.88822       	93.672615      	93.2403        	94.508         	94.00797       	92.9347        	94.00036       	93.28944       	91.98967       	94.52874       	93.99342       	93.14041       	93.741745      	94.1775        	94.17339       	94.02747       	
92.625084      	92.42752       	92.35042       	92.26078       	92.501915      	92.83541       	91.73866       	91.92274       	92.590416      	91.918205      	92.25731       	92.868744      	92.10399       	91.96716       	92.94158       	92.33272       	92.09511       	92.03072       	91.69454       	91.45504       	92.88549       	91.75191       	91.96351       	93.32774       	92.3033        	92.32769       	93.71028       	93.09881       	92.33058       	93.518906      	93.328445      	93.00301       	93.66695       	92.578705      	93.37299       	93.813736      	93.10485       	92.81845       	93.32987       	93.89607       	93.40097       	92.760445      	93.70655       	93.468185      	93.070076      	92.85711       	92.917725      	93.26757       	92.91129       	92.64583       	93.51415       	93.56023       	93.80388       	93.93167       	93.64579       	94.84441       	94.13758       	94.14275       	94.91534       	94.433014      	94.60458       	94.45478       	94.81079       	94.44652       	94.15605       	93.72973       	93.95014       	94.40717       	94.38272       	93.54843       	93.83841       	94.57662       	94.057205      	93.72895       	94.05396       	94.381584      	94.51688       	93.6975        	93.52729       	94.66629       	93.80782       	93.4118        	94.83883       	92.91902       	93.59685       	93.6023        	93.583496      	94.30193       	93.98787       	93.95463       	93.56291       	93.74566       	93.36219       	93.12597       	94.0476        	94.105225      	93.159996      	93.0467        	92.88283       	93.73946       	
92.66298       	92.795334      	93.85404       	91.39906       	93.05315       	93.49101       	91.87062       	92.249725      	93.05882       	92.753654      	92.27602       	92.85878       	92.29195       	92.37634       	93.03472       	91.73783       	92.2787        	94.002106      	91.06702       	92.34203       	94.03122       	92.31426       	93.11801       	93.304214      	92.63631       	93.36073       	93.91612       	92.69244       	93.42671       	94.335785      	92.498085      	93.80607       	93.759766      	92.61662       	94.22167       	94.005165      	93.49959       	94.60205       	94.22265       	92.903885      	94.31355       	94.13746       	92.93668       	94.49753       	94.27674       	93.204796      	94.364746      	94.5252        	93.643715      	93.85556       	92.71337       	92.79695       	93.2303        	93.46373       	92.87456       	93.69587       	93.71752       	93.169846      	93.301025      	95.07944       	93.72405       	93.33786       	94.22404       	93.82323       	93.88          	93.72741       	94.88592       	94.42087       	93.67485       	94.16177       	94.3527        	94.424774      	94.048836      	94.063545      	94.08381       	94.15803       	93.638885      	94.25024       	94.31353       	94.35766       	94.103355      	93.54798       	94.385216      	93.92148       	93.195625      	94.13915       	94.14875       	93.62724       	93.1162        	94.040054      	93.645454      	92.78852       	93.59108       	93.727585      	92.77093       	92.868576      	94.00171       	94.06871       	93.51881       	92.96181       	
92.424446      	93.146065      	92.027306      	92.91896       	92.94206       	92.34318       	93.35843       	93.26232       	92.40372       	92.795334      	93.83259       	91.81652       	92.865715      	93.22139       	91.94124       	92.002426      	92.47493       	92.4555        	91.71119       	92.99112       	93.38538       	92.97095       	93.394516      	93.177444      	93.280304      	93.93857       	92.93824       	93.56058       	94.60562       	92.90418       	92.85878       	94.65522       	93.70533       	93.12345       	94.35486       	93.79369       	92.580444      	93.57845       	93.46474       	92.41717       	93.324554      	94.2086        	92.512054      	92.8165        	94.706024      	93.00423       	93.538216      	95.08167       	93.3814        	93.151764      	94.233284      	93.256         	93.4189        	94.18563       	92.953384      	93.36324       	94.44202       	93.788994      	93.08792       	94.347305      	94.14735       	93.866585      	94.06794       	93.85977       	93.31524       	93.98239       	92.90392       	93.582115      	94.04245       	93.71117       	93.94664       	94.34118       	93.938515      	93.41284       	94.63931       	94.22027       	93.94627       	93.86198       	93.781815      	94.15948       	94.3739        	93.735054      	93.93565       	94.96428       	94.61652       	93.39986       	93.54822       	94.04866       	94.05101       	93.35208       	93.59563       	94.055374      	93.31925       	93.003746      	93.400795      	94.1427        	93.91135       	93.70178       	93.41341       	92.914314      	
91.993126      	93.25505       	92.51432       	92.16702       	92.35498       	92.765274      	92.31786       	92.11157       	92.83461       	92.85534       	92.343796      	92.49028       	91.43922       	92.68525       	93.50617       	91.93807       	92.607346      	93.83318       	92.097855      	92.18486       	93.23905       	92.47632       	92.501015      	93.80128       	93.06758       	93.258736      	94.02675       	92.25697       	93.04119       	94.16012       	93.49714       	93.89045       	93.19954       	93.46416       	94.25533       	93.01918       	94.004105      	94.90013       	93.11607       	93.486015      	93.901924      	93.76069       	93.944405      	93.57791       	92.922745      	94.56833       	94.759926      	92.43356       	93.63368       	94.73681       	92.27844       	93.09346       	94.79605       	93.43527       	93.931206      	94.42905       	93.298775      	94.57899       	94.60277       	93.51049       	94.67805       	95.211334      	92.97276       	94.140465      	95.12912       	93.98082       	93.29121       	94.40288       	94.48934       	94.27215       	94.584785      	94.6801        	94.08423       	94.251945      	93.67581       	94.45573       	95.09171       	93.87654       	93.790405      	94.960945      	93.39906       	93.59909       	94.69475       	94.00121       	93.740585      	94.7262        	93.58686       	94.25347       	95.056854      	92.63683       	93.5674        	95.33066       	92.71174       	92.84274       	94.83147       	93.19353       	92.411064      	93.16769       	93.99968       	94.18676       	
92.87798       	92.099236      	93.354355      	93.18555       	92.30174       	93.20866       	93.00846       	92.42299       	91.98023       	92.18981       	92.1794        	91.95512       	91.77663       	92.1928        	92.434044      	91.987015      	91.14851       	92.41785       	92.65609       	91.74032       	92.8047        	92.94252       	92.7564        	92.183365      	93.04778       	92.7996        	93.63152       	92.595955      	92.52691       	94.21364       	92.12416       	92.45651       	93.08583       	92.956635      	93.56518       	93.18936       	92.70121       	93.48621       	93.19777       	92.590294      	93.95364       	93.76647       	93.039185      	93.3932        	94.33666       	93.51144       	93.478134      	93.7032        	93.98245       	93.70189       	94.278145      	93.44909       	93.806694      	94.98537       	92.89711       	94.337906      	95.3422        	93.89003       	94.164604      	94.28824       	94.06456       	93.29923       	94.016914      	93.488144      	94.12009       	93.76717       	93.90762       	94.91576       	93.53018       	92.861984      	94.699005      	93.72784       	93.3844        	93.92103       	93.97742       	93.65457       	93.90677       	93.5596        	93.8116        	94.37884       	93.17534       	93.26205       	94.34349       	93.27691       	93.50176       	93.89103       	94.24956       	93.89855       	93.22737       	94.06088       	93.77275       	92.97688       	94.64725       	94.48924       	93.033356      	93.29323       	93.80584       	94.128         	93.91727       	93.57502       	
92.65942       	93.10955       	92.01275       	92.94096       	93.62802       	92.81482       	93.02624       	92.91012       	93.44518       	93.79402       	92.853355      	92.62291       	93.49642       	93.31275       	92.69648       	92.5569        	93.74904       	92.970245      	92.192375      	93.05588       	92.85246       	92.72182       	92.122505      	93.2513        	92.233154      	92.51872       	92.96282       	93.46118       	92.69071       	92.967606      	93.0525        	94.04443       	93.64753       	93.07944       	94.02192       	94.66045       	93.354355      	93.792915      	94.00556       	93.35584       	93.748695      	93.233444      	93.84462       	93.50249       	93.18005       	93.25101       	93.98431       	93.68811       	93.14137       	93.934456      	94.72686       	93.31583       	93.80054       	94.3352        	94.055244      	93.065834      	94.424286      	93.83177       	93.53071       	94.39119       	93.63073       	94.20138       	93.97896       	93.52336       	94.12072       	94.53571       	93.15128       	93.48951       	94.235435      	93.90943       	93.43412       	93.98186       	94.93432       	93.74068       	93.72006       	94.27742       	93.63827       	93.52536       	94.38178       	93.77404       	94.00464       	94.5669        	93.774445      	94.51356       	94.57658       	93.17685       	94.38041       	94.79233       	93.69173       	93.595215      	94.37855       	93.638954      	92.91802       	93.95675       	93.264755      	92.960495      	93.81951       	93.97424       	93.78551       	93.03946       	
92.06485       	92.519516      	91.8282        	93.139046      	92.474         	91.8752        	92.23551       	92.49615       	92.2935        	92.152435      	91.562744      	92.13407       	92.58658       	92.46802       	91.19873       	93.266815      	91.95411       	90.81451       	92.259674      	92.56406       	91.88642       	92.184         	92.81282       	92.1351        	91.97438       	92.974174      	92.4154        	92.63658       	92.92586       	91.88825       	93.240555      	93.303635      	91.736946      	93.13454       	94.151245      	92.52433       	92.655815      	94.40097       	93.17379       	92.85249       	93.30734       	94.10221       	92.700455      	93.84081       	94.04558       	93.09654       	94.57891       	93.28022       	93.32455       	94.49739       	93.46139       	92.090454      	94.53699       	93.25536       	92.37806       	93.888985      	93.73599       	92.4368        	93.59691       	94.64823       	93.27988       	94.35837       	95.11547       	93.16867       	93.8844        	94.78151       	93.82183       	93.52261       	94.419975      	93.620155      	93.68835       	93.72347       	93.780655      	93.92873       	93.95879       	93.28802       	94.03704       	94.6985        	92.55111       	93.94088       	93.91287       	93.52554       	93.75468       	93.815475      	93.56271       	93.22619       	93.61225       	93.36173       	93.55036       	93.061295      	93.0384        	94.48012       	93.41085       	93.36702       	94.3962        	94.197105      	93.34461       	93.4045        	93.724045      	93.526566      	
92.94858       	92.53235       	93.43812       	90.71982       	92.68063       	94.11132       	92.12901       	92.32434       	93.25932       	92.52703       	92.274506      	93.35735       	92.026825      	92.2195        	92.71276       	91.26643       	92.09754       	93.48344       	92.09169       	91.84005       	93.9593        	92.131676      	91.80541       	92.911446      	92.8219        	92.423996      	93.28918       	93.359406      	94.03545       	92.55024       	92.736496      	93.65458       	93.51401       	92.848175      	94.53179       	94.293564      	93.1986        	94.56322       	94.481865      	93.727036      	93.20621       	93.972176      	93.97966       	93.88023       	93.868126      	94.36157       	94.520515      	93.41729       	94.160934      	93.75147       	92.77068       	93.657425      	93.48723       	93.52466       	93.81775       	92.82362       	93.976685      	93.528145      	92.7509        	94.00264       	93.99606       	92.83969       	93.63189       	94.147026      	93.420616      	93.991104      	94.62074       	94.200066      	93.50859       	94.697266      	94.06778       	93.973885      	94.37143       	93.43912       	94.05455       	94.1244        	93.59244       	93.931404      	94.84587       	93.401375      	93.80446       	94.51542       	94.0493        	93.506516      	93.414604      	93.62727       	93.5114        	94.358185      	93.31297       	93.57868       	94.22713       	93.37929       	93.74594       	94.43336       	93.72228       	93.36403       	93.63803       	93.855675      	94.22655       	94.73111       	
93.19214       	93.18059       	92.73028       	92.50643       	92.32295       	93.24185       	93.20342       	92.47997       	92.59773       	92.774864      	92.75118       	92.7282        	93.27306       	93.93521       	93.11047       	92.5516        	92.84419       	92.76796       	92.329475      	92.127884      	93.55572       	92.49791       	93.09667       	92.04988       	92.52101       	93.69817       	92.97485       	92.1169        	93.73479       	94.32873       	92.22165       	93.890045      	94.23693       	92.93389       	94.10407       	94.526886      	93.84996       	94.40292       	94.02079       	94.55668       	93.62402       	93.59701       	93.76169       	94.15113       	93.220695      	92.31451       	93.93825       	93.18811       	92.34549       	93.82606       	93.50708       	92.85031       	92.93387       	93.36145       	93.75066       	93.31665       	93.0179        	93.73608       	94.04529       	94.31807       	93.7633        	94.12797       	93.78252       	92.8123        	93.4458        	94.64061       	94.005486      	93.335785      	94.64879       	93.89535       	93.67906       	93.61442       	93.82823       	94.302574      	93.936         	93.549736      	94.05722       	93.99251       	93.445305      	94.333824      	95.00206       	93.81063       	93.212654      	94.37172       	93.61182       	93.095215      	94.247604      	93.78459       	93.50122       	94.57899       	93.11778       	93.475815      	94.646614      	93.32374       	91.91298       	93.20468       	94.487465      	94.23451       	93.28378       	91.888466      	
91.82156       	93.71589       	91.82048       	93.198044      	93.337006      	91.03539       	92.68061       	93.29789       	92.22267       	92.78881       	93.038925      	92.42565       	93.467865      	93.07636       	92.532135      	94.25455       	93.958534      	92.03954       	93.78636       	93.977104      	92.14672       	93.86862       	94.581         	92.237015      	93.643524      	94.59632       	93.29024       	93.74885       	93.89982       	93.55541       	93.899155      	93.27021       	92.64355       	93.762726      	93.87096       	93.04046       	93.74251       	93.906494      	93.59628       	93.65732       	93.6309        	94.20879       	94.10803       	93.65246       	94.25438       	94.7755        	93.883865      	93.633865      	94.39119       	93.54841       	93.5341        	94.521324      	93.81386       	94.05405       	94.161545      	93.96707       	93.74853       	93.91809       	93.17452       	93.56823       	94.65733       	93.58024       	93.731926      	94.86576       	93.579544      	93.61978       	94.14787       	94.329796      	93.242294      	93.77429       	95.3101        	93.71945       	93.747246      	94.53283       	94.07105       	93.204254      	94.09835       	93.483574      	92.78405       	94.20482       	94.18208       	94.1762        	93.8028        	93.93548       	93.94727       	93.52136       	93.45435       	94.0262        	93.85815       	93.40107       	93.84891       	93.947685      	93.694626      	92.5143        	93.49417       	93.66302       	93.61745       	93.69744       	93.65601       	93.471176      	
91.77445       	93.82866       	92.280205      	92.150604      	94.366714      	92.03203       	92.0211        	93.57544       	92.51252       	93.0612        	93.22205       	93.29759       	93.16828       	92.6398        	92.84307       	93.017876      	93.04831       	92.49496       	93.18658       	94.13472       	93.632484      	92.90756       	92.67453       	92.91884       	92.80065       	92.50351       	93.58988       	94.22462       	92.68576       	93.42976       	93.55317       	93.36458       	92.41385       	92.899994      	93.679115      	93.60941       	93.4895        	93.77802       	94.06119       	93.67046       	93.51857       	94.24895       	93.76564       	93.3675        	94.06745       	93.939415      	93.884285      	93.422554      	93.42592       	93.74855       	93.123405      	93.36266       	94.001785      	94.33963       	93.68527       	93.32955       	94.15776       	93.73316       	93.59884       	93.56847       	93.82215       	93.12753       	93.21827       	93.91588       	94.08922       	93.1342        	93.32189       	94.030624      	93.463104      	93.18594       	93.62077       	93.81945       	94.37305       	93.9517        	93.07895       	94.14025       	94.2087        	93.38228       	94.83725       	95.134346      	93.88171       	93.69409       	94.83272       	93.84274       	93.07349       	93.7791        	93.741165      	92.998726      	93.74765       	93.425095      	93.786514      	93.10239       	92.76108       	93.4755        	93.56714       	92.54233       	92.12749       	92.87549       	93.91192       	93.84335       	
91.962975      	91.92579       	92.34611       	91.070305      	91.8339        	92.95072       	91.98938       	90.943985      	92.55993       	92.29935       	91.40775       	92.44197       	93.30314       	91.99121       	92.888626      	93.41149       	92.87825       	93.55357       	92.79039       	93.44824       	93.74908       	93.13669       	91.87298       	93.532364      	93.5548        	92.59599       	93.10106       	93.639725      	92.37586       	92.88762       	92.64916       	93.02422       	93.76903       	93.07124       	92.0306        	93.436104      	93.751785      	91.86757       	93.76018       	93.910576      	91.260956      	93.17524       	93.56961       	92.849396      	93.291306      	93.48389       	93.28026       	93.44275       	93.93164       	92.59815       	93.45869       	94.020584      	92.77681       	92.73194       	94.28585       	93.617386      	92.84241       	93.877754      	93.761665      	93.05485       	94.572464      	94.16045       	93.809326      	94.47339       	93.516205      	93.98176       	94.772446      	93.349014      	93.92535       	94.44388       	93.635284      	92.41383       	94.26405       	93.80549       	92.75985       	94.40869       	94.13002       	92.95705       	93.10001       	93.30246       	94.05289       	93.42542       	94.11362       	93.68274       	93.696045      	93.51644       	93.37273       	94.21141       	93.90609       	93.68824       	94.116005      	94.08442       	93.07223       	93.63942       	94.52304       	92.96253       	92.462875      	93.05274       	93.232704      	93.593956      	
92.66565       	92.24107       	92.108         	92.929535      	93.312256      	91.89991       	93.23489       	93.88676       	91.83032       	92.56299       	93.34406       	92.57345       	92.09222       	92.75155       	93.14177       	92.79975       	92.58672       	92.909225      	93.38337       	93.29372       	92.82323       	93.68596       	93.618034      	93.762886      	93.17858       	93.42453       	94.3005        	92.79862       	93.05827       	94.46209       	93.35859       	92.94918       	94.17904       	94.22215       	92.361404      	93.522835      	94.149994      	93.02897       	93.23646       	93.562225      	93.451675      	93.74757       	92.82777       	93.499825      	94.150475      	93.19132       	93.60194       	93.96501       	93.52717       	93.51262       	93.32851       	93.78187       	93.12903       	93.172966      	93.12438       	94.52075       	94.05638       	93.232         	93.2723        	93.91101       	93.642204      	93.90128       	93.41614       	94.382805      	93.96723       	94.03365       	93.57897       	94.2559        	94.37497       	93.38709       	94.14164       	94.475914      	93.55945       	94.178986      	94.97701       	94.060745      	94.057976      	94.08139       	93.550156      	94.23011       	94.50441       	93.42802       	94.199104      	94.64433       	92.88927       	93.47598       	94.00422       	94.178665      	92.6982        	94.95787       	93.46736       	93.549194      	94.075424      	94.16882       	93.5586        	93.84134       	93.42345       	93.067986      	92.96974       	92.82823       	
92.7246        	91.418205      	92.51649       	92.051346      	91.9081        	92.56802       	92.406235      	92.39082       	93.396935      	92.57185       	92.04388       	93.35396       	92.89828       	91.859634      	93.3098        	93.297325      	92.39061       	93.093185      	93.54029       	92.52208       	94.01148       	92.657524      	92.552734      	94.297775      	92.56758       	92.65291       	94.359566      	92.885666      	91.74025       	94.065956      	93.513985      	92.34664       	93.68462       	93.511116      	93.39438       	93.36592       	93.594315      	93.69029       	93.44327       	93.582085      	94.29857       	94.02009       	93.767525      	94.03329       	94.50147       	94.71711       	93.62109       	93.76439       	93.95058       	93.89282       	93.385414      	93.56477       	94.347824      	93.8706        	93.11764       	94.26971       	94.11431       	93.89066       	93.756676      	93.90559       	94.55449       	94.32974       	93.69835       	93.58297       	94.61559       	93.91919       	93.43442       	94.29018       	94.17643       	92.94625       	93.74381       	94.25446       	93.51891       	93.84103       	94.56267       	94.35603       	93.98416       	94.256226      	94.58719       	94.53971       	93.91265       	93.660355      	93.85477       	94.658745      	94.05998       	93.71636       	95.254074      	94.66202       	92.80294       	94.0223        	94.016754      	92.825714      	94.16122       	94.35438       	92.91631       	93.99194       	93.86386       	93.13622       	93.00853       	93.15779       	
91.593506      	92.269485      	91.51442       	92.10853       	92.293335      	92.65808       	92.42504       	92.15738       	92.32052       	91.78816       	92.1713        	91.25772       	92.16423       	92.7122        	91.57506       	92.49995       	93.47743       	92.40288       	92.994675      	93.78582       	93.76257       	93.2955        	93.039375      	93.80851       	93.515305      	92.62005       	93.308235      	93.23426       	92.32594       	93.02548       	93.217094      	93.659706      	93.30568       	92.83812       	94.080696      	94.205086      	92.735466      	93.3275        	93.7341        	93.759735      	93.403         	94.60392       	94.09401       	93.67559       	94.48825       	94.06562       	94.573135      	94.19488       	93.56694       	94.86455       	94.29208       	93.80122       	94.044754      	94.869354      	94.31433       	94.145615      	93.904755      	94.9461        	93.90236       	92.91301       	93.56325       	94.80419       	93.786865      	93.75632       	95.15902       	93.983635      	93.196465      	94.33716       	93.59097       	93.58515       	94.43102       	93.34059       	93.73958       	94.34422       	93.22116       	93.698135      	94.69319       	93.976814      	93.30185       	94.51179       	93.28438       	93.658646      	93.684586      	93.53503       	93.99398       	94.210526      	93.17598       	94.12243       	94.20446       	92.585205      	93.6438        	94.72775       	93.71355       	93.671196      	94.228         	93.96984       	93.71757       	93.728355      	93.47225       	93.43421       	
93.334114      	91.426956      	92.58822       	92.0881        	92.02121       	92.66061       	92.466675      	93.24897       	93.06808       	92.49763       	93.137665      	93.07687       	93.00273       	92.70023       	92.69754       	93.108475      	93.273735      	92.59624       	92.924614      	93.00093       	93.01523       	92.17461       	93.759476      	93.19844       	92.96188       	93.203705      	92.72104       	93.29667       	93.25996       	92.418655      	92.66865       	93.016556      	92.26006       	92.411026      	93.34228       	92.67916       	93.08033       	94.03413       	92.497665      	92.90838       	93.10788       	92.966194      	93.33215       	93.10794       	92.73243       	93.46986       	92.95885       	93.03837       	93.55643       	93.41676       	93.110664      	93.75229       	93.08199       	94.28053       	94.39461       	92.782845      	93.59541       	94.27119       	93.77555       	93.422325      	94.582726      	93.72261       	93.18735       	94.56348       	93.96941       	93.14281       	93.766396      	93.302         	93.05099       	93.772995      	92.41874       	92.54564       	94.5171        	93.71413       	92.35143       	94.720795      	93.62752       	92.48344       	94.3993        	92.98498       	92.57034       	94.0488        	92.72875       	92.60497       	94.747345      	93.30751       	92.23678       	94.19759       	93.9207        	92.37472       	93.243286      	93.96408       	91.81328       	93.49483       	95.1186        	93.39429       	93.061714      	93.94656       	94.28175       	94.710205      	
92.783806      	91.34953       	92.965096      	91.80303       	91.657455      	92.63844       	92.48003       	91.7066        	92.570854      	92.3837        	92.309845      	93.70189       	92.20958       	92.89495       	94.19963       	91.815994      	92.91623       	94.45897       	93.21628       	92.96156       	93.8547        	93.598404      	92.53873       	92.96141       	93.7843        	93.27269       	93.149284      	93.21134       	93.32266       	93.155556      	93.571495      	92.48386       	93.07649       	94.04491       	93.96486       	93.17762       	94.49967       	94.196815      	93.22156       	93.67386       	94.95012       	93.44188       	93.229774      	95.11778       	94.18887       	93.67334       	94.12202       	94.0472        	93.97066       	94.062935      	94.04809       	93.75838       	94.26765       	93.52828       	92.58325       	94.50919       	94.119         	93.36317       	94.19473       	94.07364       	93.26097       	93.52603       	94.30787       	92.94039       	93.79499       	93.72499       	92.73628       	93.801605      	94.13246       	92.35353       	94.37598       	93.74977       	92.550285      	94.281944      	93.40235       	93.27011       	93.695465      	92.89135       	92.93412       	93.91454       	93.77894       	92.29374       	93.79174       	94.237305      	92.26525       	93.75883       	94.158         	92.86691       	93.66094       	93.48075       	93.77248       	93.055374      	93.20707       	94.0453        	93.52398       	92.25711       	92.44964       	92.973145      	93.51534       	93.236496      	
92.63274       	92.39737       	92.35466       	92.584         	92.83138       	92.71412       	92.93889       	93.31498       	92.70576       	92.82115       	93.40889       	93.67436       	93.311325      	93.21932       	94.069664      	93.0253        	93.488266      	92.884605      	93.9427        	93.47845       	93.03341       	93.67382       	93.51027       	93.41239       	93.573074      	94.29777       	94.099106      	93.19408       	93.75464       	94.204704      	93.547035      	93.386765      	93.18094       	93.40461       	93.79219       	93.523346      	93.651         	95.0137        	93.45191       	92.96286       	94.21135       	93.822174      	92.79925       	93.550415      	93.69657       	93.57509       	93.64068       	93.344574      	94.250046      	93.78006       	93.83272       	93.57266       	93.86586       	95.14795       	93.673134      	93.05457       	94.2779        	93.415535      	93.24002       	93.42151       	94.337906      	93.295456      	93.626724      	93.950325      	93.50428       	94.35958       	95.044395      	93.13272       	94.05037       	94.719925      	92.83363       	92.69592       	94.56735       	93.19557       	93.00944       	93.93848       	92.91894       	93.87454       	94.135826      	93.04949       	93.73656       	94.81791       	93.072426      	93.22766       	94.39383       	93.04012       	92.86065       	93.37683       	93.278366      	93.1344        	93.12068       	93.30018       	93.407234      	93.68293       	93.39648       	93.35613       	93.89705       	94.507454      	94.07219       	94.479866      	
92.9207        	92.398926      	92.86133       	92.7804        	92.80889       	92.50247       	92.05461       	92.50772       	92.69627       	92.93822       	93.094536      	93.230644      	93.13986       	92.34362       	92.43054       	93.47905       	92.20212       	92.81604       	93.62021       	92.098495      	93.156235      	93.56253       	91.878624      	93.517746      	93.598946      	91.80404       	93.16195       	93.74776       	92.23538       	93.10838       	94.137         	92.78219       	93.91178       	93.83446       	93.417534      	94.2245        	94.32933       	93.05368       	94.92993       	94.686005      	92.58658       	93.183426      	95.00131       	93.08835       	93.433136      	94.610115      	93.21788       	93.577065      	93.960434      	93.49669       	94.36038       	93.98343       	92.87253       	94.01169       	94.097824      	92.66347       	93.406975      	94.12386       	92.57213       	93.38011       	93.93339       	92.81601       	93.86311       	94.04646       	92.58025       	93.72271       	93.82497       	92.705025      	92.9039        	93.710846      	92.820885      	92.60018       	93.02402       	92.81075       	93.39601       	92.79557       	92.082         	93.885254      	93.41891       	92.342514      	93.95963       	93.08891       	93.27094       	93.993866      	93.63172       	93.55258       	93.79456       	93.38969       	92.75602       	93.873344      	93.00676       	92.15071       	93.78201       	93.32243       	92.163826      	92.807144      	93.17232       	92.92681       	93.093796      	93.118515      	
93.32242       	93.134415      	93.496376      	91.57469       	93.12347       	93.57886       	92.159386      	93.84805       	93.856186      	92.50148       	93.97982       	94.05385       	92.19787       	93.638115      	94.56693       	92.72396       	93.73197       	94.72783       	93.64346       	94.45739       	94.506905      	93.70921       	94.10079       	94.62615       	93.38966       	93.496895      	94.215225      	92.61405       	92.96623       	94.63457       	94.332596      	94.05907       	94.26136       	93.39206       	93.48088       	94.340485      	93.321625      	93.240585      	93.636566      	94.23128       	93.86899       	93.98219       	94.81215       	94.20592       	93.48176       	94.834366      	94.297516      	94.19251       	94.04228       	93.82427       	93.661255      	94.55873       	93.28852       	93.72925       	94.80971       	93.49027       	93.84826       	94.74157       	93.52946       	93.74259       	94.042465      	93.434456      	94.177605      	94.108406      	93.18654       	93.38576       	94.48951       	93.540054      	93.40793       	94.857994      	93.962906      	93.42537       	94.27307       	93.97185       	93.118004      	94.102005      	92.807625      	92.638336      	94.593864      	93.14067       	93.01164       	94.75569       	94.1493        	92.801674      	94.591194      	94.52489       	93.111824      	94.8273        	93.99969       	92.996574      	94.65698       	93.522736      	92.896805      	95.323975      	93.40842       	92.55875       	93.74796       	95.09758       	95.112114      	94.68366       	
93.15206       	93.05053       	93.12059       	92.37946       	92.636284      	94.02037       	92.706         	93.091675      	93.254486      	93.54276       	93.94186       	93.82524       	92.97368       	93.577896      	93.81485       	92.39072       	93.34201       	93.29606       	92.946304      	92.917404      	93.995575      	93.98892       	93.10179       	92.6389        	93.70023       	93.03704       	93.20116       	93.28323       	93.77359       	93.6766        	93.06591       	93.29542       	93.63431       	93.792595      	93.8414        	92.936         	94.69869       	94.28111       	93.44947       	94.90473       	93.87312       	92.68401       	93.75353       	93.949394      	93.13785       	93.884735      	93.32548       	92.62459       	92.96136       	93.420044      	92.53105       	93.7666        	94.27219       	92.93951       	93.60267       	95.178154      	93.56253       	93.80997       	94.75134       	93.92447       	93.678085      	94.63221       	93.71774       	94.42137       	94.34164       	92.634224      	94.14076       	94.36755       	93.104095      	93.96252       	94.70097       	93.513985      	92.91286       	94.819336      	94.05567       	93.36705       	94.21015       	93.58686       	92.44948       	93.68421       	93.47571       	93.34896       	94.68404       	92.83336       	93.106514      	94.12302       	93.5844        	93.710335      	94.0445        	93.9639        	93.81967       	93.43469       	93.282585      	93.386         	94.32032       	93.87215       	93.44894       	93.64042       	93.830414      	94.32613       	
92.80969       	92.66012       	93.60938       	92.067055      	92.876335      	93.92205       	92.69898       	93.149956      	93.549835      	92.94107       	92.79712       	92.76583       	91.88405       	92.62589       	93.20219       	92.35597       	92.09703       	93.4012        	92.85213       	93.008194      	92.67552       	93.16739       	93.05124       	93.71709       	93.38136       	93.611206      	94.23796       	93.07521       	93.1683        	94.03231       	93.20448       	93.359695      	93.15437       	92.34728       	93.59067       	93.6905        	93.01371       	94.12104       	94.41862       	93.49034       	93.81802       	94.21302       	93.1763        	93.932175      	93.45207       	93.56847       	94.33147       	93.944824      	92.9123        	93.8702        	93.975426      	93.0501        	93.63851       	94.318794      	93.0091        	94.199066      	94.21719       	94.082726      	94.585205      	94.163864      	93.411446      	94.42535       	94.592155      	93.35656       	93.49499       	94.659164      	93.516846      	93.23743       	93.85169       	94.0439        	94.30235       	94.18642       	94.158615      	94.51447       	94.11628       	94.37652       	93.76254       	93.968475      	93.542274      	93.73491       	93.096794      	93.38826       	93.5242        	93.415596      	93.55131       	94.53718       	93.30931       	93.66821       	93.710236      	93.64453       	93.88562       	93.89071       	93.60521       	93.82674       	93.81078       	92.75773       	93.64547       	94.308105      	94.28944       	93.9908        	
93.29274       	93.24528       	93.41239       	92.553154      	93.63212       	93.10772       	92.026505      	92.651825      	93.90561       	92.06599       	92.27916       	94.19453       	92.67836       	92.43248       	94.21221       	92.95879       	92.944984      	93.11675       	93.2963        	93.27335       	93.38489       	92.968834      	93.06231       	94.03875       	93.40906       	93.11104       	94.50701       	94.49613       	93.573845      	93.39947       	94.53816       	93.33354       	92.56393       	93.96265       	93.355804      	93.43889       	93.625595      	93.82095       	93.93104       	93.76889       	93.067856      	92.880165      	93.56616       	93.07336       	93.25367       	93.838394      	94.26076       	93.4421        	93.040245      	93.75091       	93.99105       	93.712685      	92.44018       	93.326744      	92.726776      	93.2583        	93.161064      	93.51126       	93.43721       	93.24377       	92.92806       	93.595184      	93.51472       	93.01965       	92.25633       	93.46208       	93.28352       	92.81159       	93.88782       	94.05663       	93.47433       	93.86867       	93.40523       	93.96498       	94.332146      	92.92236       	93.66187       	94.470375      	93.59593       	93.41606       	94.964         	93.95646       	92.61435       	93.67917       	93.560776      	91.75598       	93.10144       	92.565025      	92.67912       	93.814644      	93.301025      	92.4191        	93.292435      	93.882774      	92.515884      	92.50139       	93.49074       	93.84005       	93.374504      	93.399796      	
92.623375      	93.96368       	92.24525       	93.56881       	93.961006      	92.46068       	92.85788       	93.78845       	93.07127       	93.163605      	93.77706       	93.31844       	93.8073        	94.351456      	92.93537       	93.22192       	94.62008       	93.19437       	92.48787       	94.404594      	93.87098       	93.32007       	94.013885      	93.76732       	93.688835      	94.57146       	93.58627       	93.3199        	94.56379       	94.093056      	93.08727       	94.3287        	94.66225       	93.101         	94.3258        	94.770195      	93.230606      	94.12293       	93.46127       	93.60043       	94.39979       	94.064835      	93.983475      	94.58177       	94.9674        	93.487274      	94.1173        	94.17935       	92.96365       	93.505905      	94.71099       	93.53106       	93.81115       	93.320564      	93.300766      	94.46418       	93.51767       	93.71441       	94.78905       	93.9482        	93.40689       	93.615776      	93.98974       	93.714325      	93.1424        	92.937096      	93.52946       	93.13591       	92.5806        	93.018105      	93.77422       	93.06588       	92.9878        	93.475204      	93.6361        	93.34032       	92.45972       	93.587616      	93.649216      	92.73027       	93.6681        	94.87788       	92.695145      	93.17497       	94.04882       	92.80038       	93.43422       	93.58836       	92.40791       	93.699875      	93.98136       	92.831024      	93.79212       	94.23494       	92.97286       	93.15519       	93.58003       	94.18358       	94.48093       	94.2939        	
94.62116       	93.28085       	93.51612       	93.01594       	92.71532       	93.86841       	93.097374      	93.09863       	93.80633       	92.01733       	92.50247       	93.500725      	93.300995      	92.04289       	93.743484      	93.34333       	92.465576      	93.29554       	93.57508       	92.38521       	93.00368       	92.986855      	92.66424       	93.32819       	93.03529       	92.46891       	94.18201       	93.57805       	92.135284      	93.74364       	95.07292       	92.893196      	93.27011       	94.409424      	93.05002       	92.861206      	93.56302       	93.3712        	92.32893       	93.2457        	93.6916        	92.79411       	93.60224       	93.72069       	92.92067       	93.85814       	93.61565       	93.01583       	94.14128       	93.801216      	93.60429       	93.27879       	93.882484      	94.0572        	93.83714       	93.86467       	93.74802       	93.55346       	93.92552       	93.73441       	93.34343       	93.56757       	93.26401       	93.290695      	93.89389       	94.32545       	93.46081       	93.663445      	94.65978       	94.09461       	93.96559       	94.14446       	94.295944      	94.403336      	93.99752       	93.160126      	94.04895       	94.33409       	93.64113       	94.86218       	94.203445      	93.71367       	94.232185      	93.183365      	94.16053       	93.94418       	93.827805      	93.81015       	93.95268       	93.27394       	93.38321       	93.771515      	94.33492       	94.07146       	93.028305      	93.759224      	94.36878       	93.75201       	93.63717       	93.865875      	
93.22104       	93.530205      	93.429726      	93.12788       	93.25252       	93.307304      	92.81246       	93.68107       	94.04008       	92.68623       	93.08027       	94.03618       	93.20878       	93.35001       	93.65689       	93.61629       	94.06389       	93.53008       	92.697525      	93.510216      	93.661736      	92.79118       	93.18177       	94.0909        	93.15137       	92.25201       	93.727554      	93.15612       	93.15083       	93.073616      	93.5647        	93.76203       	93.383286      	93.349365      	93.63656       	93.4922        	93.20765       	92.51543       	94.12575       	94.05431       	92.60747       	94.289154      	94.37424       	93.82446       	93.95631       	93.77669       	93.6294        	93.299515      	93.350426      	93.70092       	93.71966       	93.017586      	92.90654       	93.64966       	94.06083       	93.858475      	93.051056      	94.48996       	93.96388       	92.904816      	93.96996       	93.67735       	92.23735       	93.43282       	93.29729       	94.168365      	94.10583       	93.08758       	93.050125      	93.12855       	93.45393       	92.53132       	93.667305      	93.40004       	93.244514      	93.90626       	94.30911       	93.68471       	93.776855      	94.15824       	94.45141       	93.844025      	93.208534      	94.10192       	94.60552       	93.490845      	93.87517       	94.88525       	93.29634       	93.9961        	93.24506       	93.38773       	93.354         	93.41885       	93.90423       	94.40348       	94.11534       	93.975426      	93.70834       	94.007645      	
93.444336      	93.17689       	93.68565       	92.82361       	92.60731       	92.948944      	93.44213       	93.34035       	92.926056      	93.74476       	92.976166      	92.34268       	93.42953       	93.575645      	93.09086       	92.47665       	93.96081       	93.378876      	92.535225      	94.17809       	93.71431       	92.706894      	94.41288       	93.70228       	93.00675       	93.074265      	94.74402       	94.25756       	92.991196      	94.10468       	93.82442       	93.640495      	93.55887       	92.85503       	93.579056      	94.08512       	93.0037        	93.50603       	94.197014      	93.92421       	93.21099       	94.23991       	94.53266       	92.652435      	94.6703        	94.53089       	93.73336       	94.27621       	94.13118       	93.51873       	93.47262       	93.05352       	93.39671       	93.48917       	94.01583       	92.91657       	93.22615       	94.8356        	92.79536       	93.06908       	94.02938       	92.60583       	92.91438       	93.28275       	93.35624       	93.134735      	94.12682       	92.49098       	93.304214      	93.83603       	92.2716        	93.91541       	94.33068       	92.783066      	93.66227       	94.59526       	93.64444       	93.35355       	93.43966       	94.15616       	93.95234       	93.42701       	93.18712       	93.71273       	94.10322       	92.717354      	93.61666       	93.88623       	93.22944       	93.817924      	93.48312       	92.99095       	93.804794      	93.31817       	92.704575      	93.79365       	95.07491       	94.254166      	92.95971       	92.60682       	
93.822624      	93.34794       	93.20729       	92.91313       	93.86858       	93.0859        	93.06864       	94.408195      	92.504166      	93.32724       	94.26922       	93.38602       	93.26014       	93.3287        	94.17602       	93.30809       	93.06349       	93.03525       	93.25093       	93.35725       	92.95316       	92.938446      	93.31079       	93.46455       	93.229866      	94.037346      	94.00807       	93.921555      	93.59276       	95.35082       	93.5581        	92.91776       	94.91906       	94.347984      	93.26726       	94.48991       	94.42819       	93.988075      	93.358315      	93.87544       	94.67599       	93.93139       	93.73638       	94.36739       	94.91605       	94.18377       	93.93249       	95.33532       	94.78752       	94.2184        	93.62299       	94.78136       	94.62055       	94.707596      	94.3214        	94.7074        	94.5349        	93.59569       	93.79625       	94.258255      	94.19019       	93.80647       	94.04843       	94.58857       	93.814606      	93.38175       	94.698746      	93.94344       	93.52775       	92.83464       	94.067         	93.91345       	93.25542       	94.37166       	93.77388       	93.963905      	94.2742        	92.94411       	94.23585       	94.02255       	93.1389        	94.20658       	94.766205      	93.89645       	93.47356       	94.598404      	93.98577       	93.42017       	94.06543       	93.870186      	93.03312       	94.280365      	93.37267       	93.679245      	94.63846       	93.43184       	93.291626      	94.138725      	94.74112       	95.24557       	
93.13924       	93.42208       	93.082954      	93.38886       	94.274765      	93.292854      	92.67903       	93.988655      	92.95409       	92.88823       	92.86319       	92.602066      	93.02229       	92.52424       	92.8331        	92.98486       	93.41637       	92.33975       	93.09936       	94.31772       	91.95113       	92.75123       	94.267204      	92.95281       	92.79742       	94.093414      	93.46272       	92.80122       	93.58049       	93.16317       	93.19786       	93.3656        	93.731125      	94.00342       	93.34046       	93.7386        	93.834915      	94.06255       	93.37301       	93.85613       	94.22669       	93.80687       	93.46285       	94.17907       	93.73347       	93.47755       	93.10654       	93.76269       	93.22057       	93.02832       	93.04178       	93.99626       	93.605484      	92.827286      	93.76625       	93.24057       	93.516914      	92.981674      	93.399124      	94.21727       	92.24267       	93.61636       	95.11923       	93.29859       	93.13843       	94.55341       	93.062485      	93.30167       	94.06682       	93.37309       	93.099625      	93.20923       	92.73958       	93.95952       	93.44012       	92.977104      	93.95259       	94.86956       	93.13738       	93.584335      	94.752846      	92.83763       	92.3889        	94.73699       	93.54184       	92.59024       	93.398346      	93.764694      	93.2233        	94.2248        	93.43443       	93.64778       	94.51778       	93.05556       	92.48732       	94.54738       	94.45004       	93.276245      	92.632034      	92.43016       	
93.65736       	93.182625      	92.04686       	93.82028       	93.22426       	92.527916      	93.85441       	94.4861        	92.60421       	93.21636       	95.25412       	93.00887       	93.267494      	94.56042       	93.846436      	93.172485      	94.76132       	92.45016       	92.93515       	94.516556      	92.276085      	92.572784      	94.187935      	93.10805       	92.591835      	94.87157       	94.517525      	92.85774       	94.919136      	93.727646      	92.81836       	94.320206      	93.347916      	93.374374      	94.75136       	93.321655      	93.011284      	94.526276      	92.24186       	92.60451       	93.53266       	92.092316      	92.15955       	94.80664       	93.93314       	92.694         	93.42333       	94.53561       	92.454926      	93.98974       	93.984695      	93.64719       	95.08128       	94.32659       	93.544106      	95.304794      	94.116135      	93.140205      	95.1495        	94.4059        	92.30811       	94.039276      	94.745316      	92.82917       	93.489426      	94.34349       	92.97515       	94.13417       	94.08055       	93.77879       	94.076866      	94.20638       	93.21799       	93.69056       	94.34444       	92.67664       	93.7018        	95.65783       	92.81046       	93.07752       	94.47481       	92.97857       	92.81282       	94.79339       	93.6494        	94.06608       	94.61048       	94.248535      	93.8922        	94.969894      	93.13437       	93.856705      	95.67753       	93.88362       	92.98091       	94.85237       	95.04434       	93.99598       	93.18213       	92.67892       	
93.35221       	92.64461       	93.67733       	92.48999       	92.56225       	93.25555       	93.30928       	92.86263       	93.246185      	93.72151       	94.09127       	92.82527       	93.71254       	94.45663       	93.66188       	92.99276       	93.72259       	93.95086       	92.75935       	93.4146        	94.07984       	93.11052       	93.59623       	93.44316       	93.59579       	94.24354       	93.02221       	93.57234       	94.87825       	93.3245        	93.462234      	95.08333       	94.34191       	93.43543       	94.1633        	93.78605       	93.79522       	94.926605      	93.5665        	93.174774      	94.94913       	93.55184       	92.72937       	94.71293       	93.97397       	91.54013       	93.579544      	94.16664       	92.480644      	93.798706      	94.268295      	93.159225      	93.558235      	93.77414       	93.09494       	94.19686       	93.72374       	93.55677       	94.852776      	94.39677       	93.05529       	94.11244       	94.39607       	92.381294      	94.95386       	94.32586       	93.21657       	93.50004       	93.5092        	93.5245        	93.32448       	94.14238       	93.571915      	93.86389       	94.08455       	92.759315      	93.95911       	94.98683       	92.6248        	93.294075      	94.56097       	92.59016       	93.25619       	93.98365       	93.38569       	93.215256      	93.71791       	93.68658       	93.06882       	93.98099       	93.49201       	93.07543       	94.094604      	93.354         	92.3682        	93.71574       	94.9228        	93.75121       	93.20797       	92.33325       	
93.44518       	93.70323       	93.15307       	92.02166       	92.82121       	94.33589       	92.90533       	92.7345        	93.780975      	92.23117       	91.727776      	93.17647       	93.641396      	93.0671        	93.24894       	93.282074      	93.67414       	93.82698       	92.94486       	93.45008       	94.06719       	93.21615       	93.72408       	94.00628       	93.65258       	93.75982       	94.21745       	95.33082       	93.62541       	93.61107       	94.93334       	93.952644      	92.65613       	94.0476        	94.018745      	92.722015      	93.34826       	94.54131       	93.405235      	93.45973       	93.96552       	93.248886      	93.681725      	93.40496       	93.35137       	93.308014      	92.74688       	93.19554       	93.50049       	93.69837       	91.95119       	93.541794      	94.54716       	92.244835      	93.263824      	93.8492        	92.403915      	93.228676      	95.53455       	93.36666       	93.14955       	94.78694       	93.851875      	93.70886       	94.58261       	95.07303       	93.235596      	94.08001       	95.31022       	93.83656       	93.905         	93.60243       	93.423294      	94.17026       	93.156364      	93.10144       	94.98009       	93.25659       	92.83531       	94.582634      	93.2546        	93.58668       	94.03459       	94.46981       	94.46352       	93.99101       	94.49792       	94.43062       	94.38414       	93.43944       	94.17496       	94.19089       	93.451904      	93.287025      	94.46712       	94.60103       	94.34683       	93.970825      	93.39802       	93.51861       	
92.67369       	92.63921       	92.54777       	92.69473       	92.70214       	92.8501        	93.01561       	94.12605       	92.39702       	93.40939       	94.14726       	92.656364      	93.008415      	94.12586       	93.43556       	92.83586       	94.221344      	93.561066      	94.23603       	94.5993        	93.69202       	93.78752       	94.12231       	92.96016       	93.74337       	93.83568       	93.68302       	93.95216       	94.098404      	94.019775      	93.80559       	93.782646      	94.11555       	94.2599        	94.079796      	93.60959       	94.28715       	94.37381       	93.03943       	94.19361       	93.60282       	93.345184      	93.36177       	93.81792       	93.85326       	93.00142       	92.85755       	93.74034       	93.6339        	93.04272       	94.488144      	94.07453       	93.04616       	93.91977       	94.72658       	93.479774      	93.32899       	94.335556      	94.03008       	93.119415      	93.81684       	93.900314      	94.291794      	93.4555        	93.130455      	94.0387        	92.69384       	92.96967       	94.128204      	94.31676       	92.962265      	93.004845      	94.41464       	92.85751       	93.71613       	94.10885       	93.51635       	93.34394       	92.71297       	93.14023       	93.59191       	92.85239       	94.06092       	93.81363       	93.46429       	92.41774       	93.63087       	93.71019       	92.13319       	93.82373       	94.63638       	93.30162       	93.121864      	94.66426       	93.904755      	93.4711        	94.53264       	95.16126       	94.881035      	94.5826        	
92.490974      	93.66502       	93.34447       	93.63114       	93.38942       	93.10045       	93.716835      	93.2779        	92.983475      	94.61649       	93.49135       	93.151985      	94.996506      	93.846756      	92.29235       	93.58351       	94.21535       	92.83129       	93.78289       	94.280846      	93.272064      	92.68134       	94.457535      	93.9963        	92.97487       	93.655         	93.58452       	93.13283       	93.651566      	93.5957        	93.1547        	93.54272       	93.24023       	92.756676      	94.88835       	93.96772       	92.688614      	95.12345       	93.46676       	92.037224      	93.77681       	93.92407       	92.54272       	93.222984      	94.04627       	92.81794       	93.25583       	93.565605      	93.31519       	93.79694       	93.40817       	93.01073       	93.70436       	93.697716      	92.710365      	93.82327       	94.40174       	92.15826       	94.19376       	94.69083       	93.012314      	93.44765       	94.1114        	93.93888       	92.92764       	94.62785       	94.71996       	92.36176       	94.87582       	94.19897       	93.13374       	94.4572        	93.81292       	92.87379       	94.11755       	93.68051       	92.72255       	93.59274       	93.03003       	92.33192       	94.41139       	93.37192       	92.30236       	94.257935      	94.19474       	92.899506      	93.393555      	94.39692       	92.78818       	93.20699       	93.56132       	93.682144      	93.67125       	93.33902       	93.54622       	93.848175      	93.68977       	93.0225        	92.791084      	92.50813       	
91.39185       	94.60592       	91.83948       	95.16175       	93.78264       	92.0231        	95.594635      	93.21847       	92.02563       	95.16617       	94.196976      	91.26689       	94.185394      	94.89134       	90.617424      	94.53467       	95.19373       	91.49631       	94.23939       	95.54203       	92.002235      	94.5206        	94.90547       	92.33853       	94.20939       	94.313225      	93.07068       	94.67763       	94.00371       	92.03376       	95.62464       	94.09683       	91.697075      	94.54199       	94.301674      	92.31188       	93.951904      	94.326614      	92.03739       	93.214615      	94.40175       	92.791855      	93.20319       	94.91045       	93.44892       	92.31799       	94.03429       	93.53973       	92.88414       	94.48146       	93.05562       	93.2566        	94.01546       	92.62265       	93.27391       	94.0861        	92.36706       	92.662025      	94.252846      	93.28981       	92.15777       	93.88669       	92.71591       	92.14961       	92.8717        	92.424614      	93.48782       	93.8247        	91.88152       	93.425         	93.93735       	91.96429       	93.113045      	94.21891       	92.35709       	92.06734       	93.89876       	92.643936      	91.66845       	93.70686       	93.01034       	92.37995       	93.32979       	93.094025      	93.151115      	93.41875       	92.27576       	92.85998       	93.54049       	93.27145       	92.25819       	94.20018       	93.79448       	92.372444      	94.63005       	95.04196       	93.5816        	92.915855      	93.34996       	94.3599        	
