# www.neaspec.com
# Scan:	 	AFM
# Project:	 	20251007_PS
# Description:	 	
# Date:	 	10/07/2025 11:59:45
# Scanner Center Position (X, Y):	[µm]	49.99	50.01	 
# Rotation:	[°]	0	 	 
# Scan Area (X, Y, Z):	[µm]	5.000	5.000	0.000
# Pixel Area (X, Y, Z):	[px]	100	100	1
# Averaging:	 	1	 	 
# Integration time:	[ms]	5	 	 
# Laser Source:	 	4.5-15 µm nano-FTIR laser
# Detector:	 	R
# Target Wavelength:	[µm]	7.502	 	 
# Demodulation Mode:	 	Fourier
# Tip Frequency:	[Hz]	241,340.500	 	 
# Tip Amplitude:	[mV]	45.700	 	 
# Tapping Amplitude:	[nm]	80.938	 	 
# Modulation Frequency:	[Hz]	0.000	 	 
# Modulation Amplitude:	[mV]	0.000	 	 
# Modulation Offset:	[mV]	0.000	 	 
# Setpoint:	[%]	79.75	 	 
# Regulator (P, I, D):	 	4.206850	8.625812	1.000000
# Tip Potential:	[mV]	0.000	 	 
# M1A Scaling:	[nm/V]	0.426	 	 
# M1A Cantilever Factor:	 	1,000	 	 
# Q-Factor:	 	487.4	 	 
# Version:	 	2.1.11536.0
94.00218       	93.635704      	92.95683       	92.967155      	94.02741       	94.72411       	93.41276       	93.96529       	94.70427       	93.43746       	94.30394       	95.31978       	93.14103       	94.13211       	95.078445      	94.256386      	94.26803       	95.30146       	93.64305       	94.38227       	94.83302       	92.874176      	93.72291       	94.961464      	93.108604      	93.913826      	95.76795       	93.81981       	94.12137       	95.0494        	93.121         	94.82479       	94.31381       	93.40459       	94.43532       	94.676216      	93.47305       	93.77394       	94.94441       	93.39266       	92.68501       	94.017494      	93.313484      	92.90412       	93.54146       	93.02846       	92.8612        	93.89738       	92.9404        	94.23581       	94.48275       	93.56916       	93.795456      	94.737755      	94.677666      	94.57836       	93.831436      	95.45572       	94.70161       	94.532196      	94.23721       	94.24451       	95.002945      	94.239975      	93.98021       	94.85332       	94.45379       	94.15653       	94.58899       	94.24602       	95.042656      	93.895226      	93.91699       	94.313484      	94.62959       	93.71864       	94.26754       	94.85034       	94.87117       	94.39985       	94.08846       	94.67754       	94.244         	93.683334      	94.3455        	94.72559       	93.641884      	92.86911       	93.75878       	93.667435      	92.750244      	92.9397        	93.332726      	93.03028       	92.95769       	92.82232       	93.5743        	93.50705       	92.76507       	93.13916       	
93.88778       	93.28398       	92.92892       	93.0234        	93.470955      	93.27705       	93.95773       	93.80334       	92.806694      	94.2289        	93.93912       	93.02649       	93.497116      	93.40934       	93.95952       	92.6903        	93.41073       	93.36317       	93.288765      	93.029526      	93.76313       	93.61124       	93.72724       	93.68246       	94.117         	94.545006      	94.30002       	94.19706       	94.72236       	94.683304      	94.67217       	93.72829       	94.098015      	93.67284       	93.301186      	93.44952       	93.865486      	94.04919       	93.5919        	93.60589       	93.459076      	93.87923       	93.33243       	93.07983       	93.9766        	92.83644       	93.109         	93.463264      	93.789925      	93.50056       	93.83465       	94.224495      	94.01196       	94.22168       	94.279495      	93.741135      	94.377556      	93.83829       	93.181526      	94.512436      	94.49          	92.771         	93.74112       	94.15532       	94.43547       	94.45304       	93.746826      	94.58919       	94.52058       	93.910995      	93.78472       	94.53381       	94.14763       	93.48709       	94.203354      	94.47881       	94.11838       	92.87353       	93.38074       	94.23148       	93.40651       	93.37142       	93.60426       	93.825554      	94.18841       	93.935844      	93.9324        	93.267006      	93.01164       	93.09056       	93.10045       	93.51437       	92.53084       	92.3216        	93.20842       	93.266075      	92.2275        	92.90337       	93.67456       	93.38933       	
93.50833       	94.13119       	94.030914      	93.743416      	93.18095       	93.614586      	94.18657       	93.84413       	94.70216       	94.12785       	93.57521       	94.30895       	94.4289        	93.58031       	94.30434       	94.3222        	93.65084       	93.730064      	94.242096      	94.28516       	93.676285      	93.855415      	94.293175      	94.643684      	93.55029       	93.79947       	94.78309       	93.73441       	93.437935      	92.851395      	93.55899       	94.13273       	93.29681       	93.90368       	94.08121       	93.29992       	93.77279       	94.130905      	94.17876       	94.282425      	93.89249       	94.231514      	93.59987       	93.65428       	93.65599       	93.89995       	92.76726       	92.529526      	93.551155      	93.68836       	92.53279       	93.91582       	93.84269       	93.179276      	94.00228       	94.13494       	94.44412       	94.74813       	93.597496      	94.4017        	95.179474      	94.086555      	94.675735      	95.32715       	94.45928       	92.904915      	95.230316      	94.94767       	93.782585      	94.57251       	94.78328       	94.080414      	93.57193       	93.987946      	93.68649       	93.9167        	94.43881       	93.75795       	94.27678       	95.31387       	93.368744      	93.95688       	94.78155       	93.582535      	94.22246       	95.04378       	94.13018       	93.55624       	93.326         	93.804184      	93.427895      	93.36717       	92.69295       	92.38045       	93.44075       	93.22437       	92.44317       	94.47338       	93.54562       	92.73828       	
93.71827       	94.29545       	94.16605       	93.67619       	92.67203       	93.52026       	94.572464      	93.203575      	93.34352       	94.28742       	93.36109       	93.01693       	93.3228        	93.11572       	93.57496       	93.69362       	93.433426      	93.92532       	95.06062       	92.68759       	93.67445       	94.72155       	93.43517       	93.57575       	95.20159       	93.77515       	93.51763       	94.74181       	94.65797       	94.652596      	95.448296      	94.45733       	94.85458       	95.494965      	93.661514      	93.91271       	95.574875      	93.50126       	93.669754      	95.43729       	94.16981       	93.19779       	94.528755      	93.65126       	93.10889       	94.108734      	93.003204      	92.91619       	94.64782       	92.44479       	93.20277       	94.997475      	93.75211       	93.57012       	94.628654      	94.647255      	93.20314       	95.11159       	94.8848        	93.87223       	94.96109       	94.24113       	93.933395      	94.60881       	93.43009       	93.265465      	93.91269       	94.31178       	93.32824       	94.04031       	95.01111       	93.62108       	94.17806       	94.70569       	93.57868       	93.891106      	95.0546        	94.04133       	95.224075      	95.47677       	93.51466       	94.05099       	95.32711       	93.527115      	94.20393       	95.77931       	93.45317       	93.379875      	94.4058        	93.541695      	93.60851       	93.823555      	93.46178       	93.47462       	93.39833       	93.161026      	93.199135      	95.367096      	93.090294      	93.009346      	
94.2087        	94.577354      	93.49854       	92.941246      	93.20911       	94.59082       	94.13109       	92.43419       	93.97142       	94.425125      	92.85866       	93.569954      	94.39802       	93.496994      	92.93419       	94.38245       	93.17425       	92.91837       	93.00191       	93.341034      	93.64803       	93.35888       	93.46713       	93.794624      	94.52099       	93.401         	93.59582       	94.08041       	93.56041       	93.85107       	93.359         	94.23109       	94.19044       	93.362434      	94.92878       	94.79701       	93.66554       	93.76873       	94.31229       	93.39474       	93.16621       	93.85631       	94.0056        	93.58302       	93.894806      	93.727615      	94.48044       	94.088         	93.45303       	94.843315      	94.07045       	93.77481       	94.16637       	94.19445       	93.54115       	93.69596       	94.01758       	94.1617        	93.88285       	94.35148       	94.15088       	94.93444       	94.82549       	93.46947       	94.808754      	94.056244      	93.648026      	94.75099       	93.83605       	93.7025        	94.90251       	94.2423        	93.92086       	94.79544       	93.60396       	93.73012       	94.881386      	94.18837       	92.937614      	94.54213       	95.05835       	93.28006       	95.3154        	95.90046       	93.9152        	94.484825      	95.11133       	94.74224       	94.03832       	93.90512       	94.22879       	94.22458       	94.084625      	92.90954       	94.1429        	93.463455      	92.07449       	93.99051       	94.00164       	92.89283       	
95.81822       	95.453094      	94.0078        	92.54212       	94.04979       	96.63337       	94.669014      	92.94371       	95.60932       	93.95696       	92.38624       	94.99183       	94.543         	93.81579       	94.415054      	93.74417       	93.28765       	94.12287       	93.17289       	92.852005      	94.88177       	93.36567       	92.3378        	94.90468       	93.57252       	92.71639       	94.335         	94.17086       	92.87682       	93.69656       	95.41731       	93.09049       	93.745834      	96.025635      	93.76497       	93.53129       	94.7163        	94.26761       	93.74688       	94.92155       	95.101845      	94.48702       	94.20198       	94.33289       	93.90634       	93.48393       	92.54304       	93.72358       	94.2183        	92.44988       	93.8586        	94.46803       	92.75026       	93.628525      	94.409164      	93.97782       	93.4878        	94.318405      	95.35823       	94.49568       	94.34765       	95.09478       	94.48139       	92.91373       	94.585365      	95.05755       	92.84958       	94.019905      	95.48035       	93.56947       	94.80964       	94.98508       	93.95319       	94.02972       	94.0945        	94.323395      	94.34563       	94.05822       	93.981766      	94.58112       	93.91407       	93.1123        	95.06563       	95.36788       	93.67939       	94.39702       	95.27405       	94.6893        	93.857925      	94.9274        	94.98705       	93.7362        	93.53647       	94.62687       	93.91893       	92.672295      	93.828125      	95.04256       	92.855484      	93.63155       	
93.56425       	93.171234      	94.14224       	95.404         	95.55118       	93.42924       	93.78819       	96.28268       	94.335014      	94.23169       	95.41582       	93.784904      	94.843925      	94.830864      	94.29883       	94.67843       	95.26216       	94.357994      	95.18002       	95.796265      	94.27531       	94.61193       	96.36747       	93.539276      	94.59798       	95.66394       	94.497665      	94.301994      	95.697525      	95.13132       	93.83728       	95.635445      	95.514885      	94.28261       	95.18168       	94.43909       	94.35513       	94.82299       	93.97785       	94.5524        	95.60568       	94.9278        	93.93461       	95.75603       	96.047844      	92.856026      	95.05272       	94.99445       	93.26425       	94.37422       	94.70494       	94.34975       	94.1344        	93.99524       	94.7289        	93.53418       	93.9566        	94.20646       	94.680534      	94.59949       	93.13997       	95.42415       	94.679596      	93.90104       	95.65389       	95.45617       	93.69885       	94.141205      	96.01236       	94.98571       	94.603516      	95.81556       	95.28167       	94.71919       	94.86959       	94.1024        	94.43852       	94.359146      	94.34946       	94.41076       	93.623535      	93.598564      	94.04875       	94.70564       	93.74721       	93.30919       	95.26137       	93.57775       	94.28596       	94.617256      	93.61624       	94.53677       	93.84825       	93.215576      	94.373405      	93.29137       	92.539055      	93.85306       	93.85892       	92.743546      	
93.18365       	93.11093       	92.82122       	93.28669       	93.780014      	93.784706      	93.14612       	93.23787       	93.04979       	93.94056       	92.50522       	93.56015       	94.94108       	92.06365       	93.87711       	95.22493       	92.98138       	92.9665        	94.47895       	94.774185      	92.7588        	94.64688       	94.90728       	92.2827        	94.182816      	95.76661       	93.03658       	93.52771       	94.29526       	93.97137       	92.841934      	94.008026      	94.32063       	93.1028        	93.97548       	93.746124      	93.260704      	93.71229       	93.32976       	93.82692       	93.32193       	93.04289       	94.092865      	94.84722       	92.22757       	94.13948       	94.24415       	92.26464       	93.30986       	94.71342       	92.91488       	93.59525       	94.96472       	93.888504      	92.79765       	94.08065       	94.26393       	92.407555      	93.353065      	94.36504       	92.87871       	93.50481       	94.57596       	93.95073       	94.33244       	93.611725      	93.366455      	94.44178       	92.944145      	93.308235      	94.742905      	93.55865       	92.752884      	95.28875       	94.04609       	92.579254      	94.24226       	95.263115      	93.15797       	93.80103       	95.54269       	93.22951       	93.646576      	94.62786       	93.61584       	93.87406       	94.21472       	93.92701       	94.51155       	93.792564      	93.55891       	95.0655        	92.46985       	92.7369        	93.60347       	93.91304       	92.355644      	93.32494       	94.331345      	93.01476       	
92.49878       	92.71906       	93.70267       	93.71837       	93.08789       	92.679924      	93.26063       	93.75518       	93.519844      	93.44388       	93.463066      	93.7028        	94.01109       	94.057         	93.44755       	93.43834       	94.792305      	93.16557       	93.33674       	95.21693       	93.27478       	93.22408       	94.50851       	94.3442        	92.822464      	94.23985       	94.11361       	93.97009       	93.63482       	94.22839       	94.42874       	93.946         	93.454575      	94.5063        	94.40852       	93.27955       	94.19275       	94.57923       	93.11744       	93.52961       	94.4985        	93.801445      	93.21525       	94.07869       	94.995735      	92.91328       	93.947395      	94.50162       	93.31353       	92.75339       	94.49521       	94.6858        	93.07841       	94.78252       	94.53877       	93.27133       	93.97521       	94.04212       	93.35688       	94.025154      	93.36366       	93.82378       	94.50605       	92.75378       	92.38085       	95.25121       	93.30838       	93.02785       	95.60003       	94.00845       	92.9043        	94.600815      	95.27653       	92.8322        	95.09024       	93.75984       	93.639175      	94.4646        	93.226265      	93.72362       	95.191605      	93.53539       	93.683266      	95.614426      	94.29385       	92.66358       	95.41017       	93.985664      	92.62655       	95.517265      	94.806305      	92.64302       	94.90405       	95.37226       	93.1374        	93.900314      	94.36736       	93.47519       	93.329384      	93.753944      	
94.288086      	94.66485       	94.554596      	94.325226      	93.68335       	94.57954       	94.601974      	93.57943       	93.69678       	95.29586       	94.29649       	93.45818       	95.25203       	95.34469       	93.591156      	94.93241       	96.04117       	93.47244       	94.18007       	95.5428        	93.270744      	93.96347       	95.35744       	94.34002       	94.16645       	94.870865      	94.65137       	94.31156       	94.567924      	93.58955       	94.69352       	95.45079       	93.11093       	94.116745      	95.77882       	93.869644      	94.27258       	95.45628       	95.36635       	93.742424      	95.39693       	95.37076       	94.0804        	94.97156       	95.39562       	94.444084      	94.91075       	94.153946      	94.08992       	95.29984       	94.04416       	93.37061       	95.006676      	95.04937       	93.08699       	94.3357        	94.930176      	92.90331       	93.96056       	94.20035       	93.901855      	93.899055      	94.55586       	94.55338       	94.39163       	94.36925       	94.37013       	94.44931       	94.7976        	93.6778        	94.12884       	95.4871        	93.87134       	94.53653       	95.53101       	93.876015      	93.44695       	94.504105      	94.658554      	93.75175       	94.90179       	94.8185        	93.40472       	94.294624      	94.21357       	94.32264       	94.386955      	93.79475       	94.1845        	95.30102       	93.03          	94.1431        	94.895226      	92.89995       	93.22914       	94.41084       	93.144745      	92.857635      	94.2378        	93.59717       	
92.71689       	93.57996       	94.53122       	94.491585      	93.381065      	92.63888       	93.92675       	94.116806      	93.05273       	93.14864       	94.17338       	94.079506      	93.208         	93.94836       	93.83996       	94.08899       	93.63632       	93.2009        	94.751335      	93.09779       	93.31743       	94.31847       	93.73394       	93.23445       	93.930756      	94.28593       	94.58255       	93.61793       	94.632744      	94.20769       	93.28674       	93.91928       	95.22737       	92.939705      	93.23319       	94.92935       	93.68644       	92.66129       	94.567474      	93.40551       	93.37663       	94.52396       	92.88215       	93.80763       	94.03854       	93.04428       	93.40687       	94.1869        	91.74581       	92.89157       	94.39892       	92.15517       	93.02507       	94.987915      	93.4348        	93.03716       	94.36757       	93.25296       	93.06192       	93.06639       	92.81989       	93.098434      	93.8828        	92.58175       	92.63573       	93.74466       	92.99476       	92.69514       	92.892075      	93.27457       	93.22033       	92.18468       	94.179146      	94.75199       	93.12606       	93.927765      	94.76046       	93.442764      	93.168015      	94.566315      	93.28776       	93.71973       	94.14226       	93.808464      	93.54835       	94.23079       	93.073074      	93.4486        	95.38094       	93.0486        	93.090485      	94.812485      	93.77401       	92.71081       	94.330414      	93.01417       	93.02308       	93.62643       	92.33477       	93.39237       	
92.59244       	93.51065       	93.835175      	93.0775        	92.31261       	93.03801       	94.580864      	92.85966       	92.55355       	94.49206       	93.70549       	92.28812       	95.136406      	93.92534       	93.07507       	94.45081       	93.55439       	93.7846        	94.49527       	93.57206       	94.156784      	93.76449       	93.07247       	93.63785       	94.40948       	93.451         	92.98974       	95.037796      	93.85345       	93.211555      	94.34512       	94.05533       	93.66116       	94.08078       	93.598564      	93.49562       	93.25501       	92.75398       	93.28034       	93.876205      	93.3755        	93.434296      	95.070366      	94.24512       	93.18525       	93.74187       	94.3673        	93.58088       	93.83703       	94.497856      	94.10054       	94.01683       	94.30402       	93.89429       	94.64188       	93.87675       	93.39901       	94.536446      	94.03495       	93.13969       	94.23685       	94.49752       	93.142296      	93.49235       	95.05163       	93.37116       	94.075         	95.19017       	94.6741        	94.20387       	95.049484      	94.47362       	93.43434       	94.62778       	94.896225      	93.95177       	94.4012        	93.820854      	94.533035      	93.98668       	93.12919       	94.48962       	92.94742       	92.915375      	94.85255       	94.808174      	92.80279       	94.51964       	94.74767       	94.17395       	94.94496       	93.96037       	94.16474       	94.36959       	93.79195       	94.00642       	94.4871        	92.984566      	92.37592       	93.79145       	
93.01961       	94.92685       	95.3192        	94.24711       	93.0439        	93.93314       	94.08036       	93.17208       	93.4171        	94.69777       	93.90499       	93.38699       	94.35212       	93.50073       	94.316246      	94.09879       	93.536705      	94.33823       	94.44372       	93.576225      	94.24517       	94.546715      	93.81414       	93.12157       	93.68103       	94.72343       	92.43234       	93.73927       	95.134186      	93.25567       	94.560905      	94.882164      	93.90779       	94.45982       	94.34655       	93.68281       	94.20517       	94.3039        	93.22604       	94.00408       	95.475876      	93.40181       	93.83196       	95.00646       	93.17259       	93.833664      	94.57992       	94.13182       	93.60836       	93.827774      	94.58759       	93.590645      	93.44474       	94.08692       	94.06417       	94.39837       	93.30556       	94.436264      	95.061165      	93.68657       	93.708374      	94.90812       	93.83534       	93.73005       	94.46354       	94.8484        	94.66639       	94.331         	93.43254       	94.33024       	93.93855       	93.73608       	93.59882       	93.784546      	93.14255       	93.20702       	94.06287       	94.597824      	93.20326       	94.85511       	94.92207       	94.34181       	94.06827       	94.98536       	94.76665       	93.54255       	95.2591        	94.62635       	94.25843       	94.381256      	94.368706      	94.77074       	94.799034      	94.74107       	94.70813       	93.999596      	94.15581       	93.82068       	93.72194       	93.59196       	
93.27204       	93.22615       	93.17193       	93.15817       	92.7278        	93.10897       	93.12236       	94.178764      	93.75353       	92.928215      	93.512955      	94.20853       	92.927475      	92.93664       	93.851166      	93.15661       	93.44627       	94.01482       	93.61636       	94.35517       	94.20407       	93.1912        	93.66505       	94.652054      	93.254196      	93.63679       	95.22822       	94.32376       	93.37386       	94.12807       	93.736275      	93.545364      	94.605675      	93.70171       	93.80846       	94.87996       	93.60149       	93.397865      	94.67563       	94.12061       	92.296005      	94.36848       	94.61018       	92.661606      	94.45275       	94.85588       	93.31358       	94.22606       	94.56949       	93.592926      	94.41789       	94.6555        	93.44075       	94.01221       	94.97631       	92.8184        	93.83993       	95.29245       	93.737656      	93.58165       	94.15539       	93.887375      	93.510666      	93.42241       	93.73001       	93.85853       	93.11473       	94.083         	94.032036      	93.27264       	93.562416      	94.10041       	94.426674      	93.43058       	94.25428       	94.3444        	94.12264       	94.23713       	94.677086      	94.21644       	94.116615      	93.99763       	93.46586       	95.04015       	94.82239       	92.94723       	93.92956       	94.36064       	93.31839       	93.75033       	94.09883       	94.04218       	93.66071       	94.8475        	94.2566        	93.979774      	94.48747       	93.39091       	94.15726       	93.8758        	
93.40048       	94.03604       	94.15087       	94.818565      	94.45198       	93.30252       	94.02113       	94.29741       	93.34471       	94.01604       	93.688705      	93.402596      	94.32788       	93.53647       	93.69622       	94.996056      	94.211266      	93.96041       	94.4767        	94.13232       	94.129036      	94.128265      	93.67753       	94.50761       	95.47656       	94.0528        	95.44788       	95.060745      	94.0923        	94.455414      	94.16076       	94.57606       	93.82341       	93.99555       	94.561806      	94.47533       	93.960396      	94.57701       	94.62849       	93.992836      	93.84366       	94.065475      	94.64852       	95.0286        	94.510864      	94.07556       	95.24749       	95.17278       	94.423386      	94.882095      	95.404976      	94.6235        	94.15022       	93.74367       	94.136765      	94.00943       	94.62973       	94.53297       	94.00319       	94.42219       	94.0323        	93.47381       	93.26042       	93.65674       	92.79049       	93.01708       	93.824715      	93.38172       	93.438286      	93.93791       	93.363434      	93.36925       	93.14205       	92.55131       	93.54829       	93.249886      	92.72228       	93.32073       	93.89388       	93.61644       	93.97724       	93.14099       	93.85478       	93.98735       	93.84603       	93.2545        	94.9157        	93.65229       	93.886925      	94.6989        	94.351265      	95.20981       	94.07573       	93.56498       	94.898796      	94.42807       	94.25133       	94.16097       	93.46272       	94.107346      	
92.749344      	92.984215      	93.43922       	93.16497       	92.66907       	93.0652        	93.33238       	93.613525      	93.748566      	92.71978       	93.678345      	94.05523       	92.96141       	93.01676       	93.82964       	93.95733       	93.32475       	93.66947       	93.92746       	92.637825      	93.42885       	93.37645       	93.1464        	94.07864       	93.65498       	93.18429       	93.91399       	94.00206       	92.87486       	93.58663       	94.75101       	93.11142       	94.22139       	94.13733       	93.92085       	94.62097       	94.02421       	93.89563       	94.78012       	94.16924       	93.997856      	93.983734      	94.56372       	93.22801       	93.68339       	94.802986      	93.94484       	94.17083       	94.863785      	94.454605      	95.02878       	94.28095       	93.15101       	94.074905      	94.19531       	93.97313       	94.00806       	94.93287       	94.96762       	94.445         	94.66348       	94.05181       	94.4606        	94.19157       	93.75053       	94.54005       	94.07716       	93.3074        	93.969376      	94.10795       	92.84804       	93.90438       	94.091866      	93.98892       	93.4572        	93.71868       	93.2126        	93.926704      	93.55394       	93.16481       	94.01478       	94.06836       	93.89881       	93.5739        	93.732796      	94.318756      	93.03981       	92.98015       	94.138794      	93.63537       	93.76561       	94.30855       	93.54997       	93.84899       	94.52095       	93.68023       	93.93472       	94.51305       	93.80793       	94.25446       	
91.75296       	92.10135       	92.929214      	93.28028       	92.86683       	91.89307       	92.61722       	92.53429       	92.73018       	93.2078        	93.495964      	93.48414       	93.04517       	92.40446       	92.47496       	93.63477       	93.06508       	92.53942       	93.62481       	94.38675       	92.791985      	93.46175       	94.07305       	92.827934      	93.562004      	93.53016       	93.58867       	93.59737       	94.12697       	93.33355       	93.80816       	94.74984       	94.570015      	93.861         	94.27001       	94.47696       	94.13679       	94.06038       	94.50731       	93.6538        	95.40937       	94.825836      	94.433235      	95.7489        	95.78678       	94.04803       	94.324234      	95.238434      	94.08531       	94.3802        	94.95203       	94.557         	94.80368       	94.939095      	94.48246       	95.00351       	95.08333       	93.74852       	94.47907       	94.791214      	93.62622       	93.89251       	95.26214       	94.533615      	94.0581        	95.157875      	93.85191       	94.54709       	95.18778       	93.44263       	93.99626       	94.808586      	93.208954      	93.7306        	95.06017       	94.54088       	93.4528        	95.13695       	94.08699       	94.120445      	94.71829       	94.21595       	93.73587       	95.23024       	94.945885      	93.70452       	95.46396       	95.86911       	94.45959       	95.473526      	95.34129       	94.31849       	94.80189       	95.329834      	94.28936       	95.23199       	95.12374       	94.102036      	94.98384       	94.67573       	
92.83482       	93.74135       	94.20397       	94.25013       	93.50854       	92.88406       	94.0343        	94.45243       	93.06539       	94.01131       	94.5158        	94.22816       	94.253975      	94.357285      	93.75459       	93.76508       	94.55059       	93.36873       	93.89506       	95.414566      	93.728676      	93.77654       	95.47047       	94.29544       	94.02935       	94.52747       	94.5845        	93.49626       	94.25389       	94.18835       	93.968506      	94.841415      	93.875565      	93.34525       	94.62476       	93.68471       	92.88871       	93.86591       	93.54305       	93.41661       	94.300385      	93.51812       	93.73881       	95.13152       	93.15573       	92.80806       	94.67868       	93.066124      	92.74504       	93.472084      	92.68224       	93.20813       	93.26189       	92.81511       	92.91085       	93.716415      	92.9981        	93.062546      	93.68429       	92.39598       	92.48807       	93.22233       	93.18657       	92.74944       	92.90869       	92.61674       	92.74498       	92.60493       	92.41025       	92.88073       	92.93328       	92.41557       	92.877205      	93.3455        	92.9381        	92.22082       	92.57012       	92.127754      	92.2192        	91.99124       	92.5065        	92.31062       	92.15657       	92.136826      	91.97138       	92.35402       	92.39635       	91.7679        	92.62062       	92.13673       	91.080025      	91.340645      	91.68222       	92.24915       	92.00387       	92.63862       	92.99097       	93.94927       	94.43198       	94.55856       	
97.08266       	96.2815        	97.06646       	97.64446       	97.11445       	96.26988       	96.73941       	97.3155        	96.33959       	97.00971       	96.82699       	95.245415      	96.162704      	96.58754       	94.77189       	95.31828       	95.803314      	95.450836      	94.71341       	95.79162       	95.606766      	94.998215      	95.64673       	94.775345      	95.52103       	96.24946       	95.00487       	95.79674       	96.51807       	95.457535      	96.07731       	96.430664      	96.85991       	96.016205      	96.511345      	97.08602       	95.76317       	96.42761       	96.37125       	96.27554       	96.8612        	95.868935      	95.822685      	96.931816      	95.81302       	95.49118       	96.84966       	96.710175      	95.39034       	96.557816      	96.465485      	96.20735       	96.46434       	96.43598       	96.93371       	96.82362       	96.09557       	95.52573       	96.07882       	95.985596      	95.774124      	96.04705       	95.7398        	95.85731       	94.96184       	95.78045       	96.694176      	95.50994       	95.61478       	96.239456      	96.31363       	96.09532       	95.54175       	96.11299       	96.14997       	95.74537       	96.19267       	95.7001        	96.05285       	95.20021       	94.84722       	95.04742       	95.09673       	94.79987       	95.03444       	95.3616        	95.44996       	95.00182       	95.11693       	95.92293       	95.34738       	94.484955      	94.71353       	95.06276       	95.090576      	95.07126       	95.214325      	94.91          	94.72519       	95.558395      	
92.65473       	94.53252       	94.68476       	93.09374       	91.68881       	93.04232       	94.11405       	92.265396      	92.85058       	93.78185       	92.0503        	93.36594       	94.20885       	92.28194       	93.647385      	94.61833       	92.32569       	92.95061       	94.14913       	92.650444      	93.23421       	94.2013        	92.445724      	93.483         	94.61305       	92.00517       	92.48868       	94.636116      	92.87748       	93.38609       	94.27804       	93.10629       	93.551254      	93.624565      	93.07392       	93.77825       	94.077225      	93.22832       	93.51606       	94.99006       	93.83714       	93.295204      	93.92403       	93.663246      	94.024796      	93.46178       	93.423996      	93.70009       	93.759834      	93.579414      	93.45682       	93.967285      	93.299355      	93.41497       	93.382126      	93.7801        	93.13549       	93.532524      	93.81086       	94.3621        	94.133095      	93.60058       	93.43095       	94.26401       	94.022865      	93.307655      	94.05472       	94.01608       	93.46305       	93.880486      	93.56254       	93.28016       	93.748955      	92.49545       	93.173584      	94.288864      	92.4537        	92.3554        	93.58885       	93.696045      	92.765755      	93.44176       	92.690994      	92.37248       	93.32358       	93.22612       	92.422646      	93.918755      	93.26481       	92.20236       	93.46501       	93.28364       	92.12984       	92.44201       	92.8801        	91.9592        	92.968575      	92.73596       	92.30077       	93.28568       	
94.88508       	93.03205       	92.49267       	92.6724        	94.257         	93.58226       	92.38382       	92.95657       	93.78459       	92.52156       	92.65377       	93.405426      	92.423904      	93.97332       	94.021675      	91.96651       	93.989716      	93.626915      	92.34632       	92.80435       	93.58123       	93.640366      	93.306854      	93.80485       	93.39083       	93.33613       	93.86469       	93.72745       	93.61535       	94.16792       	94.54923       	93.883095      	93.97287       	94.86901       	94.70963       	93.79049       	94.433586      	94.179405      	93.771645      	93.54797       	93.45914       	93.410904      	93.69242       	93.944496      	93.16446       	93.696396      	93.70149       	92.61243       	93.20287       	94.78109       	93.450966      	93.079956      	94.484505      	93.43155       	93.20381       	94.24504       	93.46627       	93.580894      	94.687744      	92.71385       	92.907585      	94.3072        	92.48441       	92.53893       	94.12298       	93.11323       	92.46105       	93.42862       	93.14205       	93.129684      	93.3848        	93.092545      	92.534424      	94.134315      	93.16764       	91.83831       	93.924194      	93.71774       	93.24046       	93.43734       	93.28846       	92.902985      	92.57414       	92.21156       	92.75727       	92.96678       	92.55681       	92.20492       	92.610596      	92.76427       	92.411865      	92.73511       	92.807         	92.85035       	92.57834       	92.717896      	93.203156      	93.70598       	93.79815       	94.0936        	
93.5956        	93.54997       	93.30567       	93.21315       	93.6628        	93.79324       	93.977905      	92.69524       	93.557365      	92.86362       	92.16222       	92.78704       	92.32797       	92.81318       	93.66579       	92.71798       	92.95839       	94.60937       	94.01091       	93.26464       	94.88569       	94.640656      	93.82138       	94.26526       	93.962654      	93.92758       	94.89519       	93.496635      	93.67675       	94.84611       	93.66983       	93.25085       	94.96666       	94.05926       	92.57093       	94.79857       	93.53486       	93.447586      	94.41549       	93.40571       	93.67205       	94.91415       	93.10344       	93.68758       	94.67485       	93.75025       	93.56744       	94.99332       	94.022514      	92.58284       	95.14448       	94.657906      	92.91596       	94.150215      	93.932335      	93.5736        	95.2871        	94.4714        	93.09809       	94.52237       	95.064644      	93.13811       	94.624504      	95.2306        	93.5396        	94.02398       	94.569016      	93.65128       	94.03305       	94.026085      	93.626114      	93.953445      	94.181015      	93.50053       	94.015175      	94.41341       	94.06125       	93.85563       	93.47152       	93.91763       	93.606804      	92.94649       	93.35011       	93.65687       	92.60246       	93.35587       	94.21402       	94.30567       	94.315216      	94.01294       	93.80399       	93.96953       	95.20982       	93.59437       	93.44356       	94.384605      	94.51859       	93.93321       	94.98907       	95.12313       	
92.776596      	92.85433       	93.15421       	93.449814      	92.56444       	92.75446       	94.12899       	93.06921       	92.49336       	93.639275      	93.03621       	92.32156       	93.96402       	93.30815       	92.177704      	93.6219        	94.57069       	93.61507       	93.68963       	94.90595       	94.19428       	93.85912       	93.90331       	94.572266      	93.95056       	93.437874      	93.62983       	93.52619       	94.46632       	94.00561       	93.628586      	94.950714      	93.90492       	92.883675      	94.5539        	95.06596       	94.23112       	93.980064      	94.64868       	93.938354      	94.10175       	94.41009       	93.52232       	94.48571       	94.07833       	93.18092       	94.12994       	94.66534       	93.055855      	94.18913       	94.51051       	93.98231       	93.72381       	94.35716       	93.938675      	93.62544       	93.517685      	93.23537       	93.791595      	93.87329       	93.43998       	94.06829       	94.56943       	93.70075       	93.44718       	94.47143       	94.9087        	93.56397       	94.79578       	95.076935      	94.16497       	93.76462       	94.63051       	94.518326      	94.437         	94.32065       	93.91997       	93.78155       	93.92843       	94.295166      	94.529305      	93.721725      	94.433075      	94.00427       	94.67448       	94.45837       	93.56276       	93.98161       	94.391         	94.071335      	94.14136       	94.10702       	94.74163       	94.35979       	93.97709       	94.31005       	94.75162       	94.26277       	93.94611       	94.84933       	
92.1468        	92.06786       	92.83852       	93.4687        	92.66252       	92.389595      	92.85397       	93.03787       	92.77409       	93.5817        	93.51734       	93.06009       	93.90672       	93.902725      	92.82883       	93.652885      	94.36999       	92.56867       	93.23924       	93.7948        	93.580414      	93.3482        	93.93411       	92.98408       	93.50122       	94.78141       	93.09094       	93.56542       	95.283615      	93.05191       	92.87834       	94.70938       	93.76885       	92.867546      	94.7892        	94.1963        	93.84262       	94.46263       	93.57087       	93.61905       	94.316765      	93.3468        	93.19173       	94.870186      	93.99817       	93.176346      	94.23685       	94.24834       	93.84086       	93.97145       	94.06154       	94.22901       	94.32567       	94.45126       	94.35433       	95.36743       	94.561         	93.814804      	95.30436       	95.495605      	93.843575      	94.25652       	94.49934       	93.8308        	94.41879       	94.161224      	94.05993       	95.64171       	94.798904      	94.47074       	95.75825       	95.00866       	94.04803       	94.94637       	94.936295      	94.102936      	95.10585       	95.146164      	94.34793       	94.52345       	94.00565       	92.94931       	93.86889       	93.16952       	93.14434       	94.27727       	94.21852       	93.47829       	94.33691       	93.900986      	93.512245      	94.37765       	93.734344      	93.48518       	94.66395       	94.707344      	93.48676       	94.656425      	94.605064      	93.48903       	
93.36182       	93.43781       	93.44477       	93.640144      	93.80822       	93.65095       	94.05843       	93.10953       	92.98671       	93.52066       	92.96875       	92.93865       	93.837074      	94.29089       	93.712944      	93.44044       	93.901085      	94.11576       	93.65824       	93.87254       	93.78565       	94.080215      	93.49443       	93.56628       	94.63859       	93.87228       	93.86341       	93.709885      	93.49126       	94.13374       	94.627525      	93.121346      	94.042244      	94.760025      	93.78385       	93.93808       	94.74735       	93.80496       	93.59815       	94.4818        	93.78962       	93.34437       	94.57219       	94.00556       	93.144295      	95.24911       	94.34509       	92.94103       	94.22808       	93.80452       	92.79759       	93.957855      	94.21181       	93.50211       	93.85798       	93.87216       	93.76341       	93.87587       	93.566086      	93.80639       	94.86787       	94.34726       	93.69661       	95.02946       	94.4603        	93.38768       	94.64685       	94.18529       	93.86652       	95.0682        	93.98253       	94.53431       	94.436806      	93.05235       	94.35489       	94.6167        	93.53307       	93.428474      	94.27957       	94.43197       	93.94278       	94.04341       	94.53663       	93.61938       	93.518234      	93.73755       	93.56288       	94.385506      	92.79887       	93.491585      	93.649086      	93.4461        	93.45268       	93.78803       	92.94244       	93.69275       	93.589066      	92.50107       	93.156944      	94.64519       	
91.777306      	91.49608       	91.87419       	92.61856       	93.037         	92.69401       	92.25745       	92.35695       	92.68619       	93.538734      	91.67551       	92.8365        	93.03084       	92.13502       	92.130775      	92.537895      	92.513336      	92.472466      	92.618866      	92.712555      	93.33488       	92.098404      	91.66441       	93.45198       	92.81764       	92.65137       	93.29084       	93.492386      	93.46719       	92.653076      	93.6306        	93.69373       	93.06168       	93.09513       	93.84257       	93.55626       	93.47831       	93.603096      	94.25884       	93.88046       	93.16768       	93.59477       	93.89257       	92.90369       	92.61703       	93.898186      	93.221146      	92.72275       	93.27943       	94.111565      	93.44073       	93.55557       	94.015144      	94.18393       	93.41987       	93.69211       	93.42847       	93.997406      	93.18294       	92.66968       	94.46008       	92.575264      	93.06584       	93.764854      	92.89868       	93.30409       	93.85298       	92.53735       	93.348595      	93.07415       	93.07703       	94.0754        	93.79088       	93.00427       	93.19833       	93.93946       	93.77077       	93.208855      	94.89087       	93.96183       	93.26264       	94.16748       	93.785965      	93.158134      	93.08513       	92.98564       	93.12093       	92.42657       	92.29814       	92.992386      	92.984         	92.79796       	92.5404        	93.54239       	93.12318       	92.682655      	93.85843       	93.331635      	93.360954      	93.6405        	
93.238144      	93.549484      	93.69764       	93.60798       	93.20883       	93.259895      	93.858795      	93.655876      	93.55785       	94.019165      	92.99696       	93.3167        	94.931915      	93.632324      	93.08009       	94.52239       	94.3149        	93.45975       	93.99584       	94.931305      	94.08636       	93.72026       	94.932915      	94.001816      	93.99139       	94.55432       	94.39346       	94.66576       	93.752594      	94.83043       	94.70418       	94.74039       	94.51242       	94.29484       	95.04346       	93.10226       	93.156136      	94.79875       	92.94121       	93.257416      	94.999016      	94.29402       	93.77457       	94.46268       	94.32509       	93.518364      	94.277824      	94.437416      	93.761284      	93.692825      	93.92144       	93.82897       	94.06932       	93.62813       	94.21391       	93.52714       	93.90274       	93.32423       	93.168785      	93.77767       	93.94595       	92.77331       	93.66139       	94.52783       	93.490524      	93.59481       	94.7269        	94.000496      	93.14433       	94.086136      	93.665115      	94.32601       	94.05838       	93.64237       	93.95736       	94.829254      	94.13517       	93.629486      	94.34492       	94.25127       	93.9797        	93.29431       	94.48288       	94.41423       	93.95256       	94.10097       	94.220985      	94.303986      	93.04998       	94.73726       	94.03145       	93.33187       	93.73235       	93.54845       	94.22895       	93.96053       	94.0622        	94.94988       	94.54151       	93.84744       	
93.39018       	93.61592       	92.91219       	93.160126      	93.16478       	93.50667       	94.08836       	93.25319       	93.61482       	93.912025      	93.656334      	93.2979        	93.12712       	93.62957       	94.91171       	92.804535      	93.0848        	95.08597       	93.926605      	93.122955      	94.90677       	93.88768       	92.53559       	94.019005      	94.23962       	93.25697       	93.938354      	93.83428       	93.29454       	94.7338        	93.49413       	93.41965       	95.37877       	93.79355       	92.88388       	95.61085       	94.05759       	92.87174       	94.78788       	94.72381       	93.41305       	93.72189       	93.90572       	93.50703       	94.35787       	94.52438       	93.5949        	95.22575       	94.29623       	93.069626      	94.2989        	94.73015       	93.27128       	94.363396      	93.72372       	93.370346      	94.41408       	93.53491       	93.48443       	95.268585      	93.11101       	93.476974      	95.46768       	93.68517       	93.52286       	95.46615       	93.7881        	93.98263       	94.76273       	93.50157       	94.09274       	95.5463        	93.85747       	94.114914      	95.64012       	92.95224       	93.529495      	95.31942       	93.74843       	93.827805      	94.711655      	93.725624      	94.28031       	94.06322       	93.544         	94.08972       	93.67243       	92.55982       	93.82801       	94.13122       	93.25058       	93.445366      	93.70576       	93.8936        	93.65788       	93.4074        	93.8308        	93.94848       	93.80924       	93.96695       	
92.46056       	93.22069       	93.731766      	93.85461       	92.83777       	93.37212       	94.21159       	93.717606      	93.804085      	94.54495       	93.34218       	94.081436      	94.929886      	92.28822       	93.05176       	94.83874       	93.22416       	92.9771        	94.98448       	94.283775      	93.24754       	94.772         	94.80009       	92.755745      	93.68348       	94.796295      	93.856255      	94.20177       	94.28519       	94.03425       	94.60242       	94.02357       	94.520615      	94.86695       	94.16788       	93.975494      	95.016556      	94.55024       	93.71559       	94.01376       	94.60836       	93.91302       	93.96613       	95.10312       	95.103325      	94.001045      	95.03426       	94.850716      	93.91554       	94.15763       	93.15421       	94.42553       	93.80989       	93.7149        	94.37275       	94.85585       	93.92701       	94.37653       	94.42557       	93.93583       	93.36434       	94.691895      	93.55568       	93.1855        	93.63454       	93.610466      	94.424         	93.800835      	92.46977       	93.50755       	94.36169       	92.772064      	93.612625      	94.69548       	93.32043       	93.18059       	94.69475       	93.754         	93.0795        	93.88618       	93.3151        	94.04854       	93.756256      	93.50947       	93.85268       	94.020065      	92.23494       	92.817924      	94.39891       	92.725006      	92.69165       	94.03682       	93.6392        	92.82227       	94.25111       	94.91393       	94.08361       	94.15488       	94.79463       	94.595535      	
93.47879       	93.16368       	92.87407       	93.05481       	93.62005       	94.38548       	93.26343       	93.26718       	94.58212       	93.751816      	92.85584       	93.6681        	93.78478       	93.302895      	94.295334      	94.57262       	93.91462       	93.86978       	94.48413       	93.5714        	94.21154       	94.324844      	92.80567       	94.57044       	94.51847       	93.18751       	93.971756      	94.69459       	93.77434       	93.28434       	93.70581       	94.25121       	93.32898       	94.12892       	93.65107       	93.984634      	94.70251       	92.86637       	94.04018       	94.598564      	94.033554      	93.676865      	94.21252       	94.72275       	93.39709       	93.7047        	94.65849       	93.877884      	93.6706        	94.04614       	94.20024       	94.08321       	93.49463       	94.2411        	94.40764       	94.06707       	94.52906       	94.37645       	94.74328       	94.165924      	94.41417       	94.60666       	94.36342       	94.01964       	93.66504       	94.30498       	94.991684      	92.08577       	93.96371       	94.12455       	93.021         	93.638626      	94.8166        	93.68118       	94.25656       	95.064644      	93.910484      	95.039314      	94.05635       	92.77988       	95.1586        	95.08485       	93.4746        	94.527695      	94.91515       	94.102715      	93.31568       	94.13476       	93.274         	93.35355       	94.67725       	93.6607        	93.44986       	95.28996       	93.58151       	93.21441       	95.26571       	93.57014       	92.29668       	94.217476      	
92.77352       	92.69812       	93.293015      	93.5372        	93.80546       	93.91169       	93.12541       	93.308876      	94.14735       	93.6268        	93.502846      	93.042656      	93.31048       	93.4596        	93.24362       	93.34579       	94.001495      	94.21687       	92.813324      	93.3488        	94.235016      	93.05592       	93.23664       	94.09755       	93.55716       	93.61702       	93.991974      	94.125854      	94.11056       	93.75321       	93.930046      	93.70794       	94.38455       	93.76151       	93.598724      	94.78181       	94.69852       	93.199814      	94.151436      	94.94673       	93.9381        	93.91607       	94.4509        	93.97364       	94.21591       	93.95076       	93.202675      	94.679695      	94.27562       	92.98082       	94.80641       	95.39778       	92.63991       	94.11211       	94.83089       	93.17455       	93.28682       	95.134674      	93.29544       	93.31966       	94.49149       	92.98022       	93.78572       	94.33659       	92.78051       	93.86842       	94.578384      	92.55698       	92.75551       	94.67736       	93.17118       	92.85099       	93.92952       	93.823326      	93.5575        	94.05162       	93.08114       	94.62652       	93.703964      	92.26386       	93.43058       	94.69742       	92.74303       	94.24161       	95.29505       	92.93285       	93.863174      	93.91187       	92.674545      	94.19515       	93.14194       	92.69486       	94.95271       	93.80017       	92.45208       	94.17655       	94.75175       	92.389755      	94.965614      	94.491104      	
92.89279       	92.5365        	92.37816       	92.65124       	92.97902       	93.09448       	93.31026       	93.43087       	94.17239       	93.12835       	93.03198       	94.27018       	92.64062       	92.51895       	93.66432       	93.02958       	92.38465       	94.00943       	93.09018       	93.55257       	93.42272       	93.68422       	93.86645       	94.108734      	93.58066       	93.72696       	94.54644       	93.440865      	93.45995       	94.480034      	94.17874       	94.26352       	94.35616       	94.245514      	94.754326      	94.44491       	93.15431       	94.5926        	94.48885       	94.02907       	94.79146       	94.593735      	94.20346       	94.46422       	94.21627       	94.63065       	95.0452        	93.75078       	93.74254       	95.15335       	93.320244      	94.13627       	94.47154       	94.76824       	93.03676       	94.112114      	94.33857       	93.32328       	93.7192        	93.5083        	93.6178        	93.93989       	93.2975        	93.827354      	94.29785       	93.26332       	94.03047       	94.165825      	93.91964       	93.32576       	92.75553       	94.44675       	94.2977        	93.79731       	93.70223       	94.24246       	94.480354      	93.53472       	93.487015      	94.12943       	92.796585      	93.36605       	93.26803       	92.54427       	93.80037       	93.84077       	92.85133       	92.99228       	94.6253        	92.74647       	92.46243       	94.732796      	92.97651       	92.51771       	93.43546       	92.33985       	92.50494       	93.29332       	92.013954      	92.656456      	
92.5988        	92.640366      	93.05924       	93.4632        	93.760345      	93.76704       	93.72673       	94.12359       	93.83424       	94.8127        	94.83104       	93.36679       	94.69172       	94.75337       	93.24096       	94.32923       	94.898994      	94.62947       	94.00712       	94.7256        	94.62337       	94.05199       	94.3606        	94.478836      	95.28078       	94.545166      	94.293465      	94.56033       	94.67282       	94.66341       	95.56148       	94.77144       	94.82802       	94.884575      	94.48141       	94.37613       	95.051956      	93.96925       	94.28281       	94.96874       	94.45959       	94.65557       	94.89732       	94.39095       	94.88224       	94.095985      	94.57499       	94.69571       	94.432495      	93.97579       	93.90077       	94.76623       	94.40218       	94.63091       	94.35441       	95.536026      	94.719284      	93.429565      	95.104256      	94.70154       	93.95317       	94.54491       	94.53419       	94.16692       	94.45074       	94.11362       	94.86897       	94.586784      	94.876175      	94.273735      	94.11675       	94.10278       	93.77385       	93.94416       	94.6548        	94.08769       	94.0976        	94.33043       	93.854095      	95.09886       	94.10629       	94.21335       	95.19433       	93.91606       	93.41749       	94.626625      	94.78784       	93.87052       	94.88661       	94.9195        	94.19412       	94.441         	94.829056      	94.44085       	94.86801       	94.56527       	93.937546      	94.8482        	94.53554       	93.66451       	
92.63086       	93.765434      	94.45924       	94.39727       	93.4745        	93.46659       	94.307076      	93.61495       	94.23748       	94.649086      	94.05881       	94.52595       	95.42847       	93.890976      	94.11882       	95.24679       	93.862656      	93.689705      	95.52331       	95.11644       	94.236244      	94.669624      	94.251724      	94.83813       	95.16727       	94.67801       	95.33817       	95.719284      	94.98706       	94.96027       	95.61914       	95.532486      	94.4137        	94.84236       	95.30928       	95.51476       	94.91649       	94.159096      	94.65862       	95.09542       	93.64977       	94.79708       	94.88771       	94.06133       	94.756355      	95.54736       	94.086426      	94.762375      	95.36215       	94.450775      	94.272675      	95.90571       	95.60196       	94.11431       	95.69355       	95.15214       	94.86905       	95.11153       	94.756805      	94.47088       	94.86061       	94.09987       	93.860916      	94.2913        	93.94953       	94.24479       	94.56911       	94.74313       	94.16087       	93.84318       	94.39051       	94.65473       	94.71306       	94.34604       	94.824905      	95.202354      	94.12475       	94.593124      	95.10814       	93.92029       	94.56367       	94.33037       	94.46514       	94.91131       	94.0874        	94.7019        	94.80953       	94.04403       	93.84554       	94.64875       	94.24339       	93.64433       	93.88805       	94.30827       	93.4982        	93.414925      	93.62338       	94.31152       	94.83927       	93.596306      	
92.810745      	93.26594       	93.85223       	93.57409       	93.057365      	92.716995      	93.5632        	94.03084       	92.817245      	93.135345      	94.248665      	93.37509       	93.26777       	94.105576      	93.733246      	93.096436      	92.81963       	92.51973       	93.68437       	94.18037       	92.607796      	93.79337       	94.12884       	93.83747       	93.87204       	93.89472       	94.20495       	94.04405       	93.77745       	93.85627       	94.1768        	93.60339       	93.69474       	94.0041        	94.09083       	93.93344       	93.157906      	93.86237       	94.31342       	93.21864       	93.94383       	94.01425       	93.54804       	92.978035      	93.83642       	93.85755       	93.92037       	94.15972       	93.98234       	93.77184       	93.87746       	93.00746       	92.85787       	93.72325       	94.35153       	93.359825      	94.11488       	95.03172       	94.116905      	93.81788       	94.90201       	93.874954      	93.84461       	94.234795      	93.375046      	93.736275      	94.62013       	92.6267        	92.8539        	94.283905      	92.407524      	92.28383       	94.53581       	93.54792       	91.62749       	93.31279       	92.36909       	92.437706      	93.56975       	93.10531       	92.526085      	94.184204      	93.1698        	92.130325      	94.57185       	94.2303        	92.77199       	94.08739       	94.07761       	93.42443       	93.80986       	94.07136       	93.34582       	93.64603       	93.9923        	92.33469       	92.79628       	94.06221       	93.19222       	92.82887       	
94.80818       	93.73585       	93.07307       	93.27649       	94.502106      	94.38321       	93.7129        	94.47571       	94.84024       	95.53971       	94.96607       	94.598495      	95.65177       	94.49857       	95.12748       	95.34582       	94.66113       	95.02931       	94.21678       	94.230606      	95.33282       	94.39685       	93.92555       	94.641884      	94.5688        	94.572784      	94.305855      	94.55755       	95.15874       	94.93062       	94.362755      	94.67882       	94.68287       	94.47046       	93.73526       	94.53557       	94.20399       	93.64743       	94.76607       	94.576004      	94.79256       	94.30632       	93.77801       	94.63006       	94.60948       	93.70161       	94.308304      	94.8159        	93.43194       	93.2374        	94.37483       	93.86633       	92.985634      	93.92448       	94.02723       	94.06188       	93.857834      	93.50695       	94.90344       	94.36686       	93.604546      	93.61962       	94.71376       	93.4648        	93.411446      	94.37329       	94.33636       	94.68199       	93.86975       	93.22389       	94.817955      	93.96142       	93.097206      	94.77966       	94.720024      	93.61264       	94.56192       	95.06666       	94.46663       	94.44561       	94.89363       	94.34028       	95.01441       	94.77677       	93.75689       	94.843796      	94.60623       	93.17679       	93.9847        	95.1761        	93.32358       	94.17004       	94.68921       	94.51034       	94.72264       	93.39709       	93.97184       	94.43669       	93.78194       	93.56967       	
93.02267       	93.6949        	92.85339       	91.65236       	91.77499       	93.357315      	93.95456       	92.72472       	94.269615      	94.61854       	93.64795       	93.37725       	94.863754      	94.15632       	94.10001       	94.371956      	93.29707       	93.97118       	94.48526       	93.465996      	94.8409        	94.84639       	93.49183       	93.825424      	95.13375       	94.05059       	94.34435       	95.35938       	94.43206       	94.01118       	95.06192       	94.03028       	94.28819       	94.87798       	93.09769       	94.13699       	94.57691       	94.03807       	94.08157       	94.2097        	93.66288       	94.09334       	94.19826       	93.73912       	94.93213       	94.83653       	93.90426       	94.60802       	94.59334       	94.55787       	94.24562       	94.34213       	95.0953        	94.645706      	94.179924      	94.79896       	94.63531       	94.98474       	94.374275      	94.295525      	94.81866       	93.76181       	94.03944       	95.190414      	94.11561       	94.366425      	94.80875       	94.20444       	94.82796       	94.16302       	93.50801       	94.38231       	93.71646       	93.39532       	93.25551       	93.14819       	94.048386      	93.05887       	93.35255       	94.4958        	93.45171       	93.73849       	93.62609       	94.27105       	94.253494      	93.48161       	94.33857       	93.081184      	92.24486       	93.26634       	93.95342       	93.194336      	93.707085      	93.34098       	93.29843       	93.9778        	93.03327       	92.33853       	94.16492       	92.2247        	
96.25323       	95.68363       	95.05513       	95.32243       	96.64365       	96.00208       	94.44349       	96.28822       	97.63752       	94.46654       	95.859856      	97.44893       	95.569954      	95.994804      	97.16359       	95.536224      	95.79306       	96.48873       	95.85962       	96.31402       	97.039154      	95.45276       	96.102486      	97.351364      	95.07347       	95.74069       	96.79715       	95.34819       	95.29781       	96.13942       	95.91865       	95.880424      	96.253456      	95.570564      	96.24728       	96.16051       	95.47212       	96.16827       	97.01034       	95.77668       	95.480194      	96.359566      	95.08155       	94.99842       	95.49903       	94.8369        	95.30708       	95.18244       	93.70958       	94.48194       	94.88342       	94.0818        	94.50141       	95.038574      	93.5203        	94.006874      	94.107124      	93.471306      	94.48752       	93.71688       	92.752686      	94.65163       	94.91889       	93.109985      	93.71007       	95.05333       	93.4023        	93.7553        	93.79837       	92.723404      	94.32811       	93.53512       	92.051765      	94.22435       	94.04135       	91.705215      	92.99435       	93.90538       	92.23361       	92.75252       	94.03516       	92.08138       	93.26628       	93.62694       	92.22059       	92.75986       	94.15701       	91.49169       	92.62813       	94.08925       	91.96722       	91.95275       	93.22982       	92.39522       	92.49682       	93.48185       	93.01123       	92.05767       	92.82402       	92.31418       	
92.00109       	92.81099       	92.518684      	92.212265      	92.71996       	92.064445      	91.57912       	92.6881        	93.01651       	92.89148       	92.40146       	93.36307       	93.529434      	92.70948       	93.33688       	93.25399       	93.09802       	92.571175      	92.27009       	93.42887       	92.72343       	92.89132       	93.19858       	93.80806       	94.43304       	93.32727       	93.71825       	95.009445      	94.0692        	94.158905      	95.143585      	95.04931       	94.769165      	96.01836       	96.00313       	94.99475       	95.45264       	96.56164       	95.49169       	96.04583       	95.64964       	95.56131       	96.62214       	95.972565      	95.835205      	96.06352       	96.44959       	95.86128       	96.39067       	96.39127       	95.92182       	95.444565      	95.97194       	96.41528       	95.590164      	95.56013       	95.772385      	95.48774       	94.740555      	94.63573       	94.73527       	94.57751       	94.85197       	94.14753       	94.74086       	94.82746       	94.51932       	94.075714      	94.334015      	94.15441       	93.92555       	93.906235      	93.74015       	93.27727       	93.67684       	93.41363       	92.36923       	93.5526        	93.5693        	92.64609       	93.480515      	94.22386       	92.55516       	92.909805      	93.93107       	93.29552       	91.89102       	93.56292       	93.0594        	92.29414       	93.51936       	93.02127       	93.411514      	92.98682       	92.95155       	93.14855       	93.09984       	92.59266       	92.3781        	93.25546       	
93.64681       	94.73719       	95.31136       	94.98553       	94.18299       	94.100586      	94.681076      	95.56701       	94.88524       	95.059364      	95.08944       	94.59359       	95.01542       	94.85381       	94.78305       	95.57467       	95.4179        	94.983444      	96.082886      	96.01448       	95.336136      	95.19605       	96.50443       	95.84947       	94.59811       	95.69235       	95.74147       	95.31531       	94.997894      	95.659515      	95.35238       	95.298584      	94.866264      	95.62944       	96.13344       	95.628006      	95.480675      	96.629486      	96.959114      	94.82983       	96.050095      	96.26632       	94.97076       	95.291145      	95.8264        	94.91687       	94.77589       	95.498726      	95.34602       	94.756226      	95.598564      	94.677704      	95.4901        	95.30042       	94.230965      	94.4882        	95.69693       	93.6917        	94.33997       	95.50866       	94.72578       	93.83578       	95.486206      	94.916145      	93.913155      	94.992546      	95.126656      	93.741264      	94.72631       	93.930695      	93.42711       	95.087074      	93.1069        	92.439735      	94.95923       	93.58696       	92.306564      	95.01099       	94.16183       	91.40274       	94.79761       	94.38909       	92.00066       	94.14511       	93.21838       	92.51204       	93.639435      	92.6707        	92.80803       	93.82747       	92.593056      	92.07157       	93.49678       	93.02736       	92.76376       	94.16641       	93.15964       	91.93322       	92.88106       	92.82308       	
93.28605       	93.03586       	93.485405      	93.79585       	93.94522       	93.65727       	94.37723       	93.832634      	93.14355       	94.569214      	94.65392       	92.69432       	94.99206       	95.499466      	93.40373       	94.412674      	95.31377       	92.99847       	93.42716       	95.30144       	93.610405      	93.54898       	94.66185       	92.94368       	93.96175       	94.88841       	92.99711       	94.368195      	95.232285      	93.017715      	94.65743       	95.74556       	94.43253       	94.0098        	94.92785       	94.50624       	94.129105      	95.17073       	94.74227       	94.528114      	94.69185       	94.70505       	94.6731        	95.608795      	94.17838       	94.378525      	95.76282       	95.22739       	94.973495      	95.80851       	96.29511       	94.48026       	95.11678       	96.40367       	95.527626      	95.25595       	96.3195        	95.89941       	96.0548        	95.30376       	96.00036       	95.95695       	95.40503       	95.6556        	95.48201       	96.59969       	95.90804       	95.78154       	95.9679        	95.8472        	94.289604      	94.92402       	95.08558       	94.96603       	94.64168       	95.19015       	94.656425      	94.7299        	94.86124       	94.46933       	94.959595      	94.347244      	93.71863       	94.28468       	93.49615       	92.68979       	93.55252       	93.1029        	92.7675        	93.370865      	92.41759       	92.78236       	92.57649       	91.90419       	91.891464      	92.7098        	91.207466      	91.22092       	92.55468       	91.891594      	
91.485855      	92.13696       	92.33813       	92.47116       	91.80805       	91.57723       	92.576706      	92.549965      	91.85847       	92.47191       	92.75468       	92.86222       	93.02743       	93.35042       	93.258064      	93.582405      	93.52607       	92.21623       	93.44181       	94.90573       	92.3796        	93.005745      	94.43895       	91.76782       	92.65124       	94.41495       	92.767265      	92.30488       	94.08983       	93.16346       	92.46172       	94.2024        	93.39352       	92.71526       	94.06222       	92.811676      	92.58744       	94.00047       	93.00203       	92.76264       	94.10393       	93.47641       	92.621025      	94.09523       	93.90294       	92.586136      	93.35075       	95.094986      	93.319664      	93.85372       	94.35507       	93.56184       	94.623695      	93.50741       	92.345505      	93.67748       	92.98856       	91.68092       	94.15933       	92.95133       	92.23587       	93.86576       	93.18729       	92.32574       	93.386635      	93.15637       	92.25737       	92.7729        	93.02238       	91.797646      	93.939156      	93.480385      	91.87139       	93.42004       	93.76082       	91.74955       	94.00049       	92.962524      	92.24688       	93.73544       	92.308876      	92.31969       	94.46802       	92.74116       	91.70889       	94.126175      	92.88994       	91.94852       	93.44446       	93.65816       	91.59002       	92.350586      	92.7071        	91.44344       	92.65735       	92.77382       	91.545334      	92.94427       	91.88193       	90.71656       	
92.81149       	93.29977       	93.22133       	93.929794      	93.12059       	93.109566      	94.02304       	94.10524       	93.44737       	95.247955      	94.37192       	93.696526      	95.0345        	95.90552       	94.427414      	95.127235      	96.1591        	94.52572       	94.28289       	96.59607       	94.779816      	95.43263       	95.88199       	94.93997       	95.301834      	95.755356      	94.6193        	95.5131        	95.2413        	94.60517       	95.33391       	96.21278       	95.03071       	94.76473       	95.997086      	95.70177       	94.91776       	95.717445      	95.23031       	94.5922        	94.926346      	94.89771       	95.05392       	95.25884       	94.95809       	94.44262       	95.334946      	94.620834      	93.19922       	95.76877       	94.224846      	93.754654      	94.80879       	94.31479       	94.12181       	93.90707       	94.059845      	94.146194      	94.8344        	93.82301       	93.93973       	95.593925      	94.57934       	93.73022       	94.4545        	94.64327       	93.48677       	94.11095       	95.093185      	93.89781       	93.67329       	94.64986       	93.898766      	93.55875       	94.01852       	93.84973       	93.9982        	93.24496       	93.5923        	93.86689       	94.35453       	94.19227       	93.227295      	94.04173       	94.28486       	92.85787       	93.98312       	95.042206      	92.56074       	94.354164      	94.778725      	92.31114       	93.13122       	94.015945      	92.69641       	93.77331       	94.51552       	92.156         	93.41881       	93.99692       	
93.07434       	93.409065      	93.632515      	93.56904       	92.74552       	93.04728       	93.64837       	92.71346       	93.4298        	94.38028       	93.42817       	93.43487       	94.69689       	94.575874      	94.10033       	94.83862       	95.4683        	94.09895       	94.73465       	95.00375       	94.30059       	94.98138       	93.62746       	94.45769       	94.665436      	94.09965       	93.76461       	94.674515      	95.25799       	93.96001       	94.52792       	95.35152       	93.97035       	94.50893       	95.11286       	94.0323        	94.445         	94.44697       	93.913086      	94.98349       	93.62865       	94.0008        	95.218735      	94.836395      	93.485016      	95.19976       	95.80126       	93.946976      	95.14084       	95.615974      	93.56004       	95.2444        	95.22409       	94.19643       	95.00877       	95.26865       	94.65846       	95.5413        	95.47798       	94.71065       	95.60857       	95.66292       	94.171616      	95.17113       	94.77332       	94.87204       	94.57734       	94.43488       	95.34001       	94.867096      	94.95589       	95.100266      	94.72264       	94.866684      	94.793976      	94.34518       	95.66809       	94.48094       	93.69671       	95.599945      	94.080986      	93.53638       	95.03343       	94.905754      	93.4714        	94.944374      	94.54968       	93.575554      	94.80347       	94.52428       	94.0606        	94.71654       	94.86069       	93.63824       	94.96939       	95.07012       	93.122765      	95.12133       	95.01195       	93.345024      	
92.973404      	93.09643       	93.163704      	93.19046       	92.95363       	93.43897       	93.42969       	92.49798       	93.18326       	94.381996      	93.15871       	93.189995      	95.49468       	95.40462       	93.38944       	95.40062       	95.227615      	94.335434      	95.101204      	95.11351       	94.39491       	95.1461        	94.97982       	95.15597       	95.19186       	94.72787       	94.645645      	95.18889       	96.04931       	94.52294       	94.92538       	96.15943       	94.27229       	94.45865       	95.72328       	94.71984       	94.40764       	95.05382       	95.260376      	94.44703       	94.88302       	95.41627       	94.7541        	95.382355      	94.603195      	95.03575       	95.79785       	95.47485       	95.88253       	96.02141       	95.77645       	94.65223       	94.67338       	95.900604      	94.4684        	95.85827       	95.30094       	94.938805      	95.8745        	95.08378       	94.75053       	95.63597       	94.52026       	94.4778        	95.46945       	95.38565       	95.35743       	95.45295       	95.50544       	95.18129       	95.788536      	95.12634       	95.56286       	95.448         	95.01762       	93.853355      	95.05648       	94.32146       	93.16162       	94.70838       	94.67708       	94.23713       	95.32262       	95.01708       	94.21214       	95.08116       	94.85672       	93.20169       	94.954865      	94.82014       	93.16661       	95.17219       	95.26155       	93.052475      	94.066154      	94.68198       	94.395226      	93.9805        	94.24393       	93.82235       	
93.204254      	92.86452       	92.41072       	92.5216        	92.98427       	93.53677       	93.56506       	93.4015        	92.95354       	93.357994      	94.329926      	93.439255      	93.28848       	94.16352       	94.469376      	93.39324       	94.03081       	94.47002       	93.731674      	94.060196      	94.18226       	93.78886       	94.40117       	93.7504        	93.146416      	94.94771       	93.80744       	93.280464      	94.41576       	94.39778       	94.22047       	94.6516        	95.55034       	95.2692        	94.66401       	94.52083       	95.26704       	94.815155      	94.77612       	94.37106       	95.08452       	95.05009       	94.062584      	93.85677       	95.168304      	93.56003       	93.9236        	94.642265      	94.158455      	93.47553       	94.52341       	94.34322       	94.335655      	93.95368       	93.78441       	95.20431       	94.21602       	93.74531       	94.038506      	95.286865      	94.07085       	93.68876       	95.6416        	94.057846      	93.92732       	94.93583       	94.700615      	94.38911       	94.57263       	94.389496      	95.07437       	94.44289       	94.48853       	94.80407       	93.577354      	93.52369       	94.329575      	93.78141       	93.77281       	93.86503       	93.42392       	93.89249       	93.83283       	92.52746       	93.73877       	93.726425      	92.115685      	94.21428       	94.248344      	92.092026      	92.75223       	93.52388       	92.94983       	93.399605      	94.198814      	92.71676       	93.93781       	93.53437       	92.31505       	93.462524      	
92.06661       	91.166985      	92.32638       	94.22717       	94.73812       	91.86549       	92.14303       	94.28385       	92.67967       	92.15512       	93.67934       	92.97875       	92.972786      	94.00581       	94.20552       	93.07914       	94.67431       	94.12622       	94.30373       	95.61616       	93.68566       	93.40671       	95.443344      	94.010704      	93.54187       	94.76425       	94.64655       	93.937706      	93.8581        	94.67182       	94.08774       	94.53563       	94.51215       	93.49406       	94.92764       	94.10179       	93.67041       	95.09091       	94.072235      	93.78617       	94.267075      	94.548546      	94.861786      	94.01014       	94.44606       	94.29049       	94.91029       	94.81702       	94.12485       	95.476616      	94.26555       	93.689255      	95.18888       	95.42074       	93.39265       	94.33737       	95.30998       	93.44809       	93.47061       	94.88752       	93.179214      	93.255165      	94.548454      	93.86236       	93.63464       	94.559135      	93.84754       	94.2607        	95.118484      	93.4217        	93.54339       	94.54416       	92.68427       	93.61507       	94.906166      	92.72571       	92.86773       	94.653404      	92.85359       	92.80078       	94.19759       	92.90677       	93.57978       	94.03509       	93.09362       	94.08088       	93.95545       	93.22025       	93.680176      	94.82852       	93.05711       	93.179146      	94.334335      	93.92196       	93.80037       	93.811874      	93.47079       	94.51716       	94.00821       	93.14648       	
93.5853        	94.11227       	94.16325       	93.70741       	93.931046      	94.250275      	93.473114      	93.56889       	93.89195       	93.37578       	92.854004      	93.82585       	94.897         	93.383095      	94.37652       	95.385445      	93.870445      	94.584755      	95.52287       	95.48303       	95.09484       	95.38221       	95.17411       	95.17653       	94.96996       	94.9065        	95.22985       	95.67634       	94.60639       	94.56102       	95.57381       	94.54561       	95.01004       	95.30233       	95.16994       	94.52646       	94.27601       	94.943535      	94.56234       	94.61117       	94.34469       	94.39371       	95.58861       	93.54956       	94.2747        	95.258354      	94.90482       	94.29162       	94.738686      	94.93401       	93.73799       	94.88111       	95.44414       	93.844086      	94.62066       	94.66227       	94.836426      	94.781525      	94.51442       	94.51494       	94.50133       	94.61323       	94.52074       	94.57584       	95.978874      	93.922066      	94.367676      	95.18126       	94.49568       	93.94097       	94.58813       	94.57426       	93.45073       	93.453804      	93.957306      	94.20827       	94.41119       	94.47061       	93.799934      	93.95274       	93.9652        	93.52965       	94.06709       	94.29313       	92.64534       	93.92259       	94.79259       	93.58483       	93.492226      	94.78246       	93.43734       	93.08092       	94.13559       	93.17944       	93.273056      	93.557785      	94.06836       	93.790245      	94.62574       	93.14908       	
93.50045       	93.03859       	93.50524       	94.543465      	94.794846      	93.89945       	94.108         	94.66375       	93.7059        	94.17834       	93.96363       	93.500885      	94.18078       	94.67889       	93.415695      	93.24562       	95.6958        	94.57716       	93.54798       	95.41764       	95.35795       	93.21643       	94.80325       	94.885124      	94.0866        	94.385864      	95.08281       	94.08666       	94.31557       	94.13862       	94.036575      	95.641         	95.65618       	93.99854       	94.23005       	95.03397       	93.18947       	94.23783       	95.07889       	93.42948       	93.49547       	95.13074       	94.10894       	93.59818       	94.30586       	94.367676      	94.7137        	94.62363       	93.92285       	94.10931       	94.86168       	93.81502       	93.46058       	94.45717       	94.218414      	93.105034      	93.711235      	94.74666       	93.31302       	92.95185       	94.14061       	94.01139       	93.22327       	93.83031       	93.628784      	93.267365      	93.56267       	93.785065      	93.90445       	93.84093       	92.53976       	93.687584      	94.21391       	92.58008       	92.84916       	94.01163       	93.11999       	92.824844      	93.93248       	92.40038       	93.20091       	93.61931       	91.6643        	92.10204       	94.707924      	92.68718       	91.645004      	94.642006      	92.532684      	91.80468       	94.22656       	93.183716      	91.87915       	94.06402       	93.73018       	92.91949       	93.44197       	93.3425        	93.19019       	93.95585       	
92.63868       	91.59804       	91.343155      	91.736855      	92.56853       	92.432976      	91.44577       	92.30556       	91.83916       	91.98598       	93.28618       	91.95104       	92.119804      	93.6872        	92.7551        	92.310616      	94.01579       	95.25379       	93.312004      	94.82712       	95.540764      	93.0297        	93.936806      	94.895584      	93.24024       	93.70553       	94.53775       	93.070145      	93.750595      	93.690506      	93.12008       	93.325165      	94.17534       	93.156296      	93.94118       	95.60512       	92.22335       	93.604324      	95.337616      	93.1066        	93.743034      	95.14099       	93.7711        	94.13394       	94.829544      	93.58027       	94.22404       	95.02094       	93.27551       	94.20969       	94.28818       	92.83327       	93.98091       	94.67298       	92.543816      	93.02681       	95.2036        	92.91302       	93.76747       	94.43446       	93.45671       	94.54218       	94.261734      	93.03267       	94.699745      	94.33996       	92.871086      	94.729706      	94.32942       	93.263336      	94.00351       	94.09301       	93.288895      	93.153336      	93.99071       	92.779495      	93.273674      	93.08008       	92.69813       	93.33578       	93.73874       	93.075325      	92.56279       	94.27605       	92.7534        	92.64762       	94.74486       	93.55403       	92.55831       	93.743484      	93.34787       	92.8354        	92.73698       	93.29749       	93.36435       	92.90709       	93.66845       	93.226494      	94.054634      	93.05937       	
93.12012       	93.057365      	92.89832       	92.91166       	93.21276       	93.59969       	93.29839       	93.3275        	93.82788       	93.651         	93.32512       	92.75453       	93.93411       	94.50664       	93.26559       	93.82332       	94.729904      	94.25361       	94.137764      	94.84035       	94.4535        	95.59399       	95.02538       	93.93591       	95.101006      	94.333786      	93.74126       	94.63302       	94.016655      	94.12463       	94.929596      	95.32439       	94.44747       	95.46736       	95.29672       	94.378716      	95.40125       	95.74643       	94.43968       	94.16021       	94.91881       	94.47031       	93.21326       	94.556526      	95.36829       	93.42859       	94.771935      	94.69732       	93.476456      	94.80028       	94.4405        	94.4071        	94.9388        	94.34874       	94.10335       	95.363785      	95.1337        	94.625534      	95.612015      	95.71144       	94.96703       	95.236786      	95.08012       	94.51298       	94.175934      	94.685265      	94.14157       	94.90194       	93.85282       	92.892166      	94.16952       	94.51893       	92.56706       	93.405205      	95.11894       	94.51123       	93.74918       	94.99955       	94.5597        	93.54354       	94.37169       	94.23649       	94.32122       	94.13026       	93.282074      	94.08684       	93.814545      	93.62679       	93.2504        	94.13086       	94.094315      	93.195595      	93.57451       	94.09911       	94.1528        	93.7014        	93.816246      	93.95349       	94.01698       	93.71732       	
91.87462       	91.86344       	92.46559       	93.05403       	93.46308       	92.24006       	92.520905      	93.66279       	92.1927        	92.40121       	93.81205       	92.67424       	93.88361       	93.34642       	93.891426      	94.36823       	94.20239       	93.93262       	94.54927       	95.74803       	94.4657        	94.34269       	95.62359       	94.37371       	94.51632       	94.64235       	94.313545      	93.76716       	94.78466       	94.57242       	94.36011       	95.1012        	94.087685      	94.166176      	95.173615      	93.669525      	93.78959       	95.46996       	95.20424       	94.09771       	93.93103       	95.29009       	94.47674       	95.33156       	95.02455       	93.76673       	95.30868       	94.70649       	93.11839       	95.40998       	95.25345       	92.87365       	94.16338       	95.56258       	93.753136      	93.3494        	95.61217       	93.94864       	94.646454      	95.175995      	94.86174       	96.01356       	94.88684       	94.43509       	95.89022       	94.99555       	94.4657        	94.71449       	95.22995       	93.089195      	93.70128       	94.92243       	93.38411       	93.56119       	94.04012       	93.71435       	94.53365       	94.318985      	93.69813       	93.736694      	93.94359       	92.79821       	93.55102       	94.64657       	92.99511       	93.1012        	94.57711       	93.65402       	93.29778       	93.57502       	93.557945      	94.12532       	93.47513       	93.438644      	94.118614      	93.66041       	93.21817       	93.509674      	93.75099       	93.01754       	
92.71106       	92.78234       	93.27884       	93.79788       	93.350395      	91.80116       	93.62723       	94.596176      	92.959114      	93.01238       	94.37033       	93.53173       	93.089645      	94.15673       	94.13514       	93.04855       	93.56222       	94.53636       	94.41113       	94.63684       	94.564125      	94.56857       	95.05957       	94.66679       	94.537445      	95.08424       	95.629524      	94.155914      	94.70877       	95.61546       	94.54887       	94.78814       	95.16768       	94.91806       	94.36194       	94.75575       	94.734856      	94.564575      	94.39936       	94.29171       	94.54676       	95.44467       	93.82089       	95.240166      	95.68004       	94.487015      	93.95895       	94.88574       	94.68798       	93.853         	94.86955       	93.8151        	93.67844       	95.13534       	94.47679       	94.72774       	95.863         	94.819756      	94.79715       	95.503         	94.68677       	94.222916      	95.32381       	95.67672       	94.17719       	94.78841       	95.65331       	93.47217       	93.3768        	94.85344       	94.13485       	92.24618       	94.55139       	93.49336       	92.19148       	93.93138       	94.04711       	92.52466       	93.73097       	92.88073       	91.90008       	93.667595      	92.47637       	91.892784      	93.67425       	93.58257       	91.76356       	93.20517       	94.05831       	91.56804       	93.17632       	93.41387       	91.88476       	93.003876      	93.852066      	92.148445      	94.041145      	93.909164      	92.45248       	93.843155      	
92.8836        	92.58212       	92.91753       	94.021324      	93.29874       	92.26271       	93.597176      	94.04666       	92.49825       	93.34644       	95.0129        	94.39701       	93.612434      	94.80232       	94.728195      	93.162056      	94.24903       	94.31519       	93.649124      	94.29675       	93.86727       	93.48319       	94.75424       	93.65568       	94.132065      	94.209015      	94.14888       	94.138466      	94.58101       	94.37306       	93.59124       	94.3182        	94.214         	94.74004       	96.35236       	93.79894       	95.09477       	95.19179       	93.31136       	94.12776       	95.030266      	94.07103       	94.53432       	94.78174       	94.74271       	93.89584       	94.079926      	94.49529       	93.85041       	94.12626       	93.44642       	93.04393       	95.01093       	94.48414       	93.80814       	95.41728       	95.399376      	93.44825       	95.92191       	95.02965       	93.656624      	96.44066       	95.43124       	93.098434      	95.830925      	95.34682       	92.672356      	95.03589       	95.266106      	92.17426       	94.01376       	94.775475      	92.35987       	94.19193       	93.992935      	92.928764      	93.85815       	93.52498       	92.929985      	94.668625      	93.50677       	92.40445       	94.128456      	93.4324        	91.44813       	93.61525       	94.690025      	91.916145      	93.7854        	94.41867       	93.28947       	93.494255      	94.54029       	93.23892       	94.050896      	93.84837       	92.67957       	94.264404      	93.912285      	92.83658       	
93.10079       	91.42614       	91.27862       	91.66817       	93.145134      	92.50984       	91.24924       	92.55777       	93.84281       	92.98209       	93.406006      	94.746185      	93.07486       	92.929375      	94.026596      	92.784805      	93.345695      	94.29241       	94.208984      	94.243515      	95.147224      	94.29765       	95.18653       	95.48107       	94.03216       	93.93404       	95.53531       	93.75276       	93.378334      	94.40423       	94.119026      	93.68245       	93.94747       	94.34009       	93.71705       	94.528275      	93.92098       	94.161514      	94.713165      	93.70629       	93.42167       	94.718636      	93.72315       	93.12253       	94.79808       	94.34416       	93.349594      	93.78742       	93.749374      	93.53948       	93.671524      	93.942825      	93.87657       	94.05582       	94.011345      	94.17428       	95.2169        	94.91613       	93.77797       	94.30692       	95.03847       	94.08573       	94.03929       	94.30289       	93.98866       	94.10137       	93.285904      	94.20047       	94.04692       	93.570404      	93.08956       	93.36962       	93.42928       	91.98193       	92.7039        	93.01002       	92.42762       	93.06754       	92.623825      	93.57159       	92.69221       	92.457436      	93.36518       	92.72022       	92.194         	92.198135      	93.60251       	92.71689       	92.77165       	93.821915      	92.403145      	92.92183       	93.89381       	93.50307       	93.37999       	93.5354        	93.279625      	93.45264       	93.41983       	92.437225      	
93.751045      	93.81943       	92.71931       	92.10169       	92.75671       	94.052284      	93.621864      	93.0413        	94.231316      	93.80345       	94.563065      	94.53991       	93.42535       	93.363945      	94.36259       	93.643394      	92.99382       	94.94137       	94.4793        	93.91524       	94.784515      	94.86304       	94.279045      	94.85133       	94.176186      	94.84339       	94.41436       	93.9756        	94.79318       	95.00888       	94.166916      	94.26047       	95.119576      	94.793015      	94.2816        	95.29947       	94.629875      	94.03539       	93.909775      	94.01659       	93.86635       	93.82088       	93.68523       	93.97431       	94.232956      	93.90357       	93.59546       	94.3744        	93.85918       	93.63775       	94.60619       	94.86083       	95.10277       	95.23918       	94.654625      	94.9489        	95.64544       	94.25612       	95.02052       	96.21693       	94.17778       	94.73624       	95.517456      	94.69632       	94.910324      	94.924736      	94.28932       	94.54659       	93.873985      	93.50784       	94.25509       	94.11824       	92.54984       	94.43136       	94.75236       	93.7021        	94.12499       	94.43164       	94.082085      	93.83534       	94.01608       	93.37044       	94.137054      	94.2317        	92.600845      	93.74426       	95.19881       	92.629684      	92.95051       	94.42937       	93.26976       	92.21447       	93.74159       	93.153564      	92.187675      	94.03712       	93.037186      	92.57095       	94.53724       	92.48994       	
92.83607       	93.173836      	93.1777        	93.795975      	94.19294       	93.823044      	93.54586       	94.47379       	93.39167       	93.325554      	93.34742       	93.61166       	94.22172       	92.35701       	93.01136       	94.23263       	92.71257       	93.296104      	94.63627       	94.604454      	94.03598       	94.99291       	94.03555       	94.19166       	94.90876       	94.12668       	94.43895       	94.93225       	94.55135       	93.48026       	94.843544      	94.541176      	93.21762       	94.58603       	94.81022       	93.20265       	94.00488       	94.45423       	94.26458       	94.525566      	94.4412        	94.25927       	94.89007       	94.77441       	94.36747       	94.8363        	95.074844      	93.07755       	94.13025       	95.0068        	93.655556      	93.67555       	94.51325       	94.703255      	94.324745      	94.752365      	95.56904       	94.9274        	95.34051       	94.700424      	95.379196      	95.589775      	93.57007       	94.8651        	95.03679       	93.910645      	94.31648       	94.899414      	93.78768       	92.99373       	94.08297       	93.35001       	92.96259       	93.78272       	93.486336      	93.60011       	93.80256       	92.44941       	92.53545       	94.05827       	93.01913       	92.44365       	94.104614      	93.39864       	92.71042       	93.463776      	93.56135       	92.859         	94.10015       	92.86569       	93.23054       	94.299126      	92.73677       	92.585396      	94.07521       	92.51063       	92.243904      	93.53515       	92.68287       	92.787544      	
92.79138       	92.53685       	92.07504       	92.69115       	93.58497       	92.70717       	92.88061       	94.684494      	93.6951        	92.685715      	93.94832       	94.477875      	93.87511       	93.72096       	93.90118       	94.17382       	94.15726       	94.689545      	94.32205       	95.06241       	96.07027       	94.09046       	94.64526       	95.14344       	94.56535       	94.70658       	96.04056       	94.41722       	94.5448        	95.3745        	93.637985      	94.47828       	94.94951       	92.93848       	94.53137       	96.36937       	93.30773       	94.693954      	96.08391       	93.19716       	94.29818       	96.54769       	93.308426      	94.16002       	95.94173       	94.229935      	94.11362       	96.175545      	94.00204       	94.74532       	95.597916      	93.463394      	94.31578       	95.03423       	93.875565      	93.98062       	96.24206       	95.21266       	94.20336       	96.80144       	95.129326      	94.50135       	95.98308       	94.93688       	94.44968       	95.53292       	94.32504       	94.57891       	94.30163       	93.738785      	93.7607        	94.27629       	94.18902       	93.09978       	94.58379       	93.786026      	93.027756      	94.37027       	93.53608       	94.25581       	93.508         	93.134995      	93.197075      	94.066895      	92.67697       	92.86358       	94.13194       	93.17779       	92.86473       	93.63736       	93.21459       	92.41261       	93.711266      	92.831535      	92.98343       	94.35103       	92.84721       	92.22221       	94.01546       	93.536835      	
93.17314       	93.166794      	93.4547        	93.63854       	93.53402       	93.46675       	93.81406       	93.28596       	93.34172       	94.50429       	93.092445      	93.427704      	94.289764      	93.32649       	92.033676      	94.08288       	93.597         	93.309074      	94.75843       	93.55069       	94.44682       	95.02292       	93.41817       	93.45715       	95.53451       	94.78171       	94.15785       	95.49804       	94.938         	94.49597       	94.99342       	94.198044      	95.0238        	94.621475      	93.71249       	94.42951       	94.628136      	93.55803       	93.63808       	94.55428       	94.23722       	93.26625       	93.5459        	94.33435       	93.85524       	94.426605      	94.689575      	94.44121       	95.36523       	94.420685      	93.79158       	94.53901       	94.01001       	93.03997       	94.48209       	94.681305      	94.137955      	94.698906      	95.00297       	95.00481       	94.752556      	95.144035      	94.87416       	95.82514       	95.56403       	94.50378       	94.72246       	94.74952       	93.8811        	94.3442        	94.20625       	93.849045      	94.47011       	93.894035      	94.19368       	94.47061       	94.159424      	93.57372       	94.95922       	94.46245       	93.13863       	93.414795      	94.14847       	93.75174       	93.68039       	93.27348       	93.09014       	93.95397       	93.59993       	92.97534       	94.24468       	93.65752       	92.95377       	93.61853       	93.32215       	93.75611       	93.69779       	93.7889        	93.03366       	94.54286       	
92.49332       	91.68936       	92.04529       	92.804985      	93.12361       	93.36722       	93.195786      	93.14075       	93.76447       	93.193146      	93.44052       	93.53338       	92.39977       	93.61942       	94.152435      	92.579666      	93.73732       	94.83366       	93.97653       	94.153946      	95.61129       	94.71197       	94.57295       	95.557915      	94.206894      	95.29444       	95.39993       	93.63827       	94.101654      	94.91564       	93.75351       	94.15549       	94.72022       	94.283195      	94.298584      	93.92131       	93.835945      	94.4049        	93.9299        	94.269424      	94.3988        	94.5488        	94.80026       	94.04367       	93.85731       	94.37653       	93.878876      	93.412796      	94.116005      	93.99427       	93.58048       	93.838776      	94.00772       	93.9462        	94.2823        	94.04772       	94.17315       	94.666466      	94.889694      	94.69365       	94.843994      	94.72938       	94.89654       	94.46071       	94.89982       	94.77837       	94.029816      	94.32414       	93.70592       	94.172714      	94.48638       	93.19384       	94.27989       	93.95907       	93.029816      	93.5451        	93.774185      	93.26937       	93.299965      	94.290474      	93.207436      	93.99657       	93.55895       	92.54207       	93.856255      	94.09523       	92.36869       	93.1095        	93.88811       	93.00507       	92.59056       	92.849785      	92.60709       	92.67538       	93.335976      	92.29213       	91.50965       	92.77696       	92.65002       	91.70414       	
93.08838       	92.732025      	92.19482       	92.282646      	93.22636       	93.770546      	93.20436       	93.79142       	94.47424       	94.193085      	94.9038        	94.40809       	93.31294       	94.0122        	95.07215       	93.46107       	93.64002       	94.6071        	93.1095        	93.829094      	94.44174       	93.3211        	93.99672       	94.04699       	93.530685      	95.180046      	95.185394      	94.1254        	94.34489       	96.215096      	94.47515       	93.33647       	95.07243       	93.85254       	92.95141       	94.865974      	93.98583       	93.16828       	94.58854       	94.016685      	93.38655       	94.99386       	94.19838       	93.71737       	95.75078       	94.3119        	93.87948       	94.95833       	94.00693       	93.74139       	94.33202       	93.865364      	93.871185      	95.24838       	94.16512       	94.13155       	95.5171        	95.28284       	94.421425      	95.4119        	95.67937       	94.63704       	95.242065      	94.72948       	94.003914      	95.1811        	94.4346        	93.00005       	94.39189       	93.89516       	92.83296       	93.64908       	94.10702       	93.21265       	93.273605      	94.45261       	93.27819       	93.1362        	94.35522       	93.27881       	93.65279       	94.196815      	93.04112       	93.407104      	93.85239       	93.26297       	92.52527       	93.86528       	93.2307        	92.746056      	93.02511       	92.82465       	93.42659       	93.72493       	92.82165       	92.920456      	93.307724      	93.03311       	93.308304      	93.875275      	
92.77363       	92.18275       	92.469734      	93.34004       	94.03067       	93.2599        	92.6447        	94.84698       	93.761246      	92.572945      	94.5828        	93.36507       	92.874214      	95.10067       	93.987686      	93.15827       	95.37346       	94.68742       	93.413536      	95.41106       	95.31496       	94.57136       	95.37371       	95.043655      	94.965454      	95.30335       	95.14149       	95.13702       	95.69524       	95.69302       	94.5565        	95.47217       	95.54505       	93.66606       	94.89516       	95.86689       	93.62177       	94.517944      	95.799446      	93.67226       	94.40407       	95.759476      	94.19884       	95.18875       	94.61234       	93.8096        	94.33202       	95.713715      	94.25253       	94.85566       	95.580925      	94.026566      	94.189095      	95.22399       	94.18688       	94.25005       	95.26307       	95.07662       	95.71783       	95.79817       	95.33589       	95.00455       	96.05835       	95.41972       	95.040146      	95.91596       	95.64673       	94.682144      	94.67882       	95.09636       	94.54068       	94.08468       	94.61546       	94.56668       	94.365265      	93.60379       	93.78114       	93.97838       	93.26081       	93.62798       	94.05702       	93.37666       	93.313156      	93.646255      	93.375984      	94.021736      	93.32033       	92.867325      	93.86919       	94.207466      	94.03699       	94.18525       	94.475914      	93.87678       	93.18677       	94.04838       	93.55275       	94.07634       	94.0573        	92.837906      	
93.01718       	92.8008        	93.028275      	93.55156       	93.15915       	92.778046      	93.91192       	93.68841       	93.257095      	94.0153        	94.26636       	94.308525      	94.35695       	93.87657       	93.8521        	95.253334      	94.32762       	93.87641       	94.91174       	94.44467       	94.90686       	95.185394      	94.19747       	94.48405       	96.04729       	95.025375      	94.584755      	96.14432       	95.41507       	93.84053       	95.08696       	96.20621       	94.56518       	95.23569       	95.44904       	94.29142       	94.68822       	94.87598       	94.04157       	95.22176       	95.799965      	93.613785      	94.143684      	95.70492       	93.93686       	94.40526       	95.45145       	94.264         	94.68405       	94.571976      	94.30901       	94.24398       	94.42866       	93.74179       	94.15726       	94.68058       	93.78707       	94.02418       	95.094315      	94.93139       	94.30301       	94.737564      	94.91179       	94.58754       	94.91271       	94.4519        	94.05303       	94.50207       	93.9227        	93.462036      	94.390465      	93.93351       	93.696175      	93.55909       	93.70194       	94.40722       	93.94804       	93.797676      	94.534454      	94.02966       	93.241776      	93.62232       	93.08023       	94.027115      	93.848915      	93.220634      	93.38659       	92.83298       	92.36983       	93.10063       	93.147736      	93.35988       	93.41886       	92.73095       	92.943085      	94.014206      	92.82234       	92.93246       	93.8659        	93.6045        	
92.517334      	93.06055       	92.76861       	92.12574       	92.19508       	93.35875       	94.0998        	92.82044       	93.03973       	94.404175      	92.909805      	92.59909       	93.95506       	93.39131       	91.832344      	93.35754       	93.883965      	93.4225        	94.16423       	93.87102       	93.559364      	94.732544      	94.34157       	93.67552       	95.366974      	95.23055       	93.73727       	94.79989       	94.69296       	94.30098       	94.288246      	94.17679       	94.0443        	94.30443       	94.41872       	93.73136       	94.7293        	94.27287       	94.01865       	93.79268       	94.12924       	94.60844       	93.837006      	94.366875      	94.82763       	94.25565       	93.80616       	94.13151       	94.05809       	94.81493       	93.78218       	93.72127       	94.83383       	93.39761       	93.76921       	93.956856      	93.76305       	94.01024       	95.17154       	94.79284       	94.401405      	96.76498       	94.341606      	94.22785       	96.12284       	94.082886      	93.64662       	95.4402        	94.389244      	93.463135      	94.72724       	93.44182       	93.506485      	94.76136       	93.61276       	93.194244      	95.02245       	93.340935      	93.67127       	94.24747       	93.12652       	92.83678       	93.75053       	92.67889       	92.912224      	93.45987       	92.83118       	92.406494      	94.05085       	93.2633        	91.220345      	93.33508       	93.58465       	91.98127       	93.07267       	93.25757       	93.54308       	93.232475      	92.880684      	92.43996       	
92.7808        	93.12031       	93.64611       	93.72279       	93.12177       	92.77563       	93.6645        	93.81059       	92.904755      	93.640175      	93.93165       	93.381035      	93.58713       	93.41358       	93.067085      	93.98197       	93.40336       	93.09724       	94.68145       	94.168495      	93.35611       	94.10558       	94.934074      	94.09825       	94.25756       	94.78476       	94.65517       	94.69222       	95.19121       	94.741486      	94.96595       	95.718765      	94.83919       	94.186226      	94.93074       	94.85603       	93.592285      	94.90364       	95.390045      	94.529655      	94.65266       	95.435135      	94.2531        	94.54395       	95.53169       	94.15335       	94.718994      	95.390594      	93.8433        	94.29945       	94.80386       	93.969536      	93.4664        	94.53813       	93.30242       	94.14776       	94.97222       	93.83672       	94.59483       	95.98938       	94.351494      	95.28634       	96.58533       	95.191124      	94.55668       	95.806915      	94.2222        	94.12574       	94.62343       	92.97482       	93.60791       	94.78765       	93.24124       	93.16952       	94.63212       	93.09024       	93.065956      	93.616646      	93.414215      	93.23686       	93.587456      	93.11214       	93.433685      	94.52292       	93.70369       	93.346016      	94.401726      	93.71833       	92.68383       	93.809364      	93.668686      	93.227264      	93.607         	92.97656       	93.31905       	93.36389       	92.56196       	93.108185      	94.33965       	93.2262        	
92.42882       	92.174324      	92.2515        	92.83345       	93.68563       	93.55687       	92.88749       	94.09526       	94.361404      	94.25155       	94.24653       	94.38318       	93.98824       	93.93701       	94.42449       	94.04723       	94.3956        	95.08583       	94.44565       	94.18531       	94.631714      	94.76995       	94.25932       	94.64833       	95.509285      	94.64843       	94.93407       	95.59139       	94.8995        	94.85296       	94.90962       	94.385185      	94.71994       	95.31531       	94.066986      	94.107475      	95.13199       	94.000694      	93.66102       	93.87633       	93.81983       	93.75496       	94.332275      	94.41898       	94.0948        	94.71586       	94.40993       	93.94665       	95.07361       	94.35052       	93.69011       	94.17876       	94.30144       	94.51407       	94.40646       	94.074005      	94.28226       	93.71216       	93.987724      	94.81893       	94.5885        	95.12582       	94.18542       	94.92786       	95.430626      	94.50233       	94.292564      	94.28826       	94.84063       	93.584526      	94.33048       	94.05913       	94.16956       	94.31435       	93.68483       	94.58615       	94.6974        	93.62685       	94.32429       	94.29855       	94.42826       	94.19719       	93.892715      	94.05626       	95.08688       	93.7428        	93.25994       	94.07593       	94.16966       	92.35604       	93.68783       	93.48062       	93.611275      	93.24444       	93.78327       	93.96368       	94.31657       	94.187614      	93.01976       	94.07255       	
92.158745      	92.2688        	92.368256      	92.53637       	92.46293       	92.85219       	93.46131       	93.3425        	92.608475      	93.17552       	94.0056        	92.97818       	92.908745      	93.90998       	92.64959       	93.4082        	93.781685      	92.23553       	93.337456      	94.78739       	93.66066       	93.04951       	95.661545      	94.550545      	93.48087       	94.92508       	94.393425      	93.92479       	95.17493       	94.85897       	94.06372       	95.298164      	94.07006       	93.3683        	95.00204       	94.206955      	93.26214       	94.04508       	94.450775      	92.94952       	93.88077       	94.220795      	93.1855        	93.655014      	94.5973        	93.538445      	94.502365      	95.04143       	93.67467       	94.7411        	95.25924       	93.70926       	94.39141       	95.08903       	94.18161       	94.02096       	94.96505       	94.48092       	94.242645      	94.55293       	94.422905      	94.69737       	96.12712       	94.435684      	93.610146      	95.44472       	94.32808       	93.64772       	95.22214       	94.75932       	93.45792       	94.39          	93.8599        	93.67055       	94.12761       	94.06404       	93.2465        	94.728386      	93.73933       	92.74461       	94.0267        	94.49771       	92.89865       	93.788925      	93.89428       	93.3555        	93.8018        	93.877716      	93.002884      	93.88525       	94.103         	92.9826        	93.85601       	94.07509       	91.65092       	93.44388       	94.10928       	92.35007       	93.33822       	93.48328       	
92.62446       	92.75809       	92.916954      	93.13976       	93.74694       	93.487656      	93.27327       	94.33573       	93.66112       	93.09573       	94.3487        	94.123505      	92.955124      	93.74437       	94.002495      	93.3448        	93.627426      	93.86329       	93.37096       	93.79046       	93.81152       	93.06225       	93.627975      	94.210785      	93.47616       	93.45545       	95.264114      	94.37669       	94.45893       	94.88077       	94.55387       	95.007034      	94.55519       	94.52214       	94.93991       	95.12495       	94.29126       	94.4726        	95.17351       	94.66179       	93.82841       	94.484604      	94.64005       	93.40213       	94.2081        	94.41808       	93.76144       	94.52483       	94.04111       	93.41664       	94.87576       	94.11698       	93.50111       	94.49321       	93.6445        	94.57083       	94.91281       	94.02094       	95.12642       	95.98816       	94.79432       	94.69385       	95.88492       	94.25939       	93.939804      	95.083084      	94.715454      	94.31605       	94.92754       	94.11616       	94.2899        	94.682625      	94.47531       	94.03788       	94.43541       	94.10777       	93.491455      	93.85216       	94.313614      	93.87573       	93.48998       	94.50136       	94.22846       	94.005745      	93.90852       	93.08656       	93.9373        	93.648224      	92.61803       	93.61275       	94.19129       	92.80617       	92.091156      	93.94621       	93.17066       	92.52079       	93.46452       	92.67334       	93.62973       	94.19291       	
93.30385       	94.17313       	94.344955      	93.82175       	92.9436        	93.53805       	94.92416       	93.69527       	93.30277       	95.10611       	94.1682        	93.29447       	94.658165      	94.31855       	93.66267       	94.22883       	93.92226       	93.691444      	94.61837       	93.44618       	93.188095      	94.963264      	93.979645      	93.42895       	94.938324      	95.24939       	93.689255      	94.74968       	95.774765      	94.8986        	95.50118       	96.06456       	94.58717       	96.08472       	95.56951       	94.350105      	95.593315      	95.93483       	93.25479       	94.249115      	95.417145      	93.09197       	93.671555      	95.1972        	93.385284      	93.2675        	95.16778       	93.680176      	92.935715      	94.622475      	94.08104       	93.97705       	94.05343       	93.49543       	94.39117       	94.49146       	93.38203       	93.926025      	94.64961       	93.57235       	93.33288       	93.90953       	94.44467       	94.32677       	94.48634       	94.234726      	94.086266      	94.388824      	94.649605      	94.80704       	94.72246       	94.18138       	94.23823       	95.27319       	94.25373       	94.22431       	94.196045      	94.43674       	94.375275      	94.33288       	93.353264      	93.985405      	94.733734      	93.94843       	93.74444       	94.00582       	93.74733       	93.38775       	94.11373       	94.38243       	93.95459       	94.150444      	93.499214      	93.440704      	94.43395       	94.728485      	93.04444       	94.402054      	94.35345       	94.05937       	
94.38268       	93.92868       	92.63952       	91.99356       	92.55746       	94.25462       	93.35373       	92.86967       	93.723076      	93.48188       	93.724236      	93.658554      	93.12296       	93.46757       	94.0238        	92.793015      	93.30428       	94.51578       	93.65809       	92.83647       	94.264435      	93.69437       	93.99345       	93.82813       	93.60258       	93.42444       	95.07991       	93.859116      	93.078         	95.288124      	94.33418       	93.233734      	95.49707       	94.87744       	93.12761       	95.90252       	95.82121       	93.439545      	95.23404       	94.76938       	93.82785       	95.32057       	94.804214      	93.57803       	95.51351       	95.249146      	92.96579       	94.739204      	95.956375      	93.16341       	94.203384      	95.11604       	93.624344      	93.61443       	94.79007       	93.75693       	94.07049       	94.84062       	94.340805      	94.51507       	94.75647       	93.48707       	94.21114       	94.83409       	93.40175       	94.171295      	95.21353       	94.32342       	93.62111       	94.69312       	94.51644       	93.659424      	94.84144       	94.49682       	93.36475       	93.83968       	93.40347       	93.29666       	94.1446        	93.617905      	94.04508       	95.00563       	94.04386       	94.40913       	94.90939       	94.80384       	92.90148       	93.7243        	93.67384       	94.02291       	93.832436      	93.59094       	93.63683       	94.2972        	92.58391       	92.786224      	94.328766      	92.810356      	92.61112       	94.15724       	
92.94115       	92.34555       	92.72472       	93.39472       	94.51559       	93.9498        	93.277824      	94.770386      	94.43289       	93.14914       	94.29252       	94.89827       	93.95516       	94.75916       	94.575455      	93.4495        	94.68131       	94.20259       	93.101166      	95.01348       	94.65083       	92.64169       	94.70607       	94.62724       	93.86944       	94.6003        	94.18926       	94.783005      	95.73214       	95.16408       	94.42076       	95.511955      	96.07674       	93.39994       	96.31908       	96.14716       	94.37643       	95.58422       	96.172455      	94.993324      	94.59195       	95.08916       	93.93314       	95.29837       	94.72127       	93.78736       	95.65824       	95.32609       	92.5896        	95.511955      	95.19964       	93.35301       	94.63477       	94.98961       	94.756485      	94.25526       	94.971016      	94.175766      	94.88609       	95.14912       	94.362946      	94.27536       	94.934845      	93.85587       	93.78148       	95.01142       	94.522125      	93.35672       	95.438194      	95.387436      	93.44396       	94.61952       	94.400826      	94.67801       	93.96184       	94.17217       	94.51993       	94.11442       	93.55293       	93.04949       	94.13994       	93.674324      	92.8456        	94.90983       	93.70566       	93.09228       	94.070885      	93.89038       	93.614815      	93.26974       	93.426285      	93.7018        	93.392784      	93.42846       	93.09676       	93.7977        	93.44539       	92.41228       	93.84667       	94.659225      	
93.70274       	94.97337       	94.658195      	93.74303       	92.723785      	93.51704       	94.78214       	93.515594      	93.40561       	94.01808       	93.228         	94.10043       	94.07476       	93.24915       	93.49866       	95.13437       	92.296684      	92.36177       	95.37118       	93.3953        	92.94467       	94.55572       	93.29178       	92.95899       	93.85188       	93.81009       	93.782074      	94.51262       	93.88404       	94.0527        	95.10543       	94.27515       	94.47657       	94.5638        	94.4713        	94.90023       	94.74095       	94.36235       	95.545006      	94.81349       	94.315094      	94.85174       	95.26538       	94.24886       	94.4375        	94.83565       	94.33977       	94.24783       	94.7719        	94.57195       	95.41399       	95.13585       	94.16869       	95.451416      	94.79963       	93.65845       	94.30553       	94.58776       	93.89162       	93.22437       	94.43921       	93.61229       	93.4867        	94.43969       	94.0738        	93.46748       	94.95503       	94.413666      	93.89033       	95.51747       	93.72566       	93.30854       	95.417984      	93.90602       	93.6022        	94.95883       	93.57591       	93.83836       	93.53706       	93.60324       	94.2353        	93.931656      	93.59322       	93.69946       	95.00784       	93.028496      	93.26169       	94.66678       	94.25719       	93.15573       	94.34286       	94.60545       	93.276665      	93.7435        	94.33055       	93.93684       	93.39296       	93.74332       	93.45998       	93.70397       	
92.66818       	93.02159       	93.52617       	93.26464       	92.19603       	92.86275       	93.816925      	93.5583        	92.47474       	93.470795      	94.24681       	93.45114       	93.46514       	93.73314       	94.3538        	94.20492       	93.42286       	93.89668       	94.57621       	93.75208       	94.29048       	94.10408       	94.36018       	93.5006        	94.19103       	95.08908       	94.33432       	94.4897        	95.02111       	95.60909       	95.44963       	93.7717        	94.66994       	94.785736      	94.52101       	94.3098        	94.76961       	95.06194       	93.526665      	94.50089       	95.573616      	94.23108       	94.038574      	94.956505      	94.42813       	93.69247       	94.46114       	94.99521       	93.63378       	94.95112       	94.652794      	94.19798       	95.259514      	94.17118       	94.07659       	96.007034      	94.48569       	93.676704      	96.10997       	95.137085      	93.32092       	94.37638       	95.05816       	94.02601       	94.26525       	95.50168       	93.47551       	94.23011       	94.41338       	93.89851       	94.53478       	94.0142        	93.627846      	95.18022       	94.45301       	92.98241       	94.60585       	94.57979       	93.458374      	94.391365      	94.68989       	93.225426      	93.50937       	94.10418       	93.320145      	94.25569       	93.26989       	93.65813       	94.25572       	93.87739       	93.503494      	94.372795      	94.079056      	93.50362       	93.423546      	93.82073       	93.28563       	93.88445       	93.64108       	93.72838       	
93.58564       	92.66503       	92.66199       	93.25118       	93.56151       	92.949135      	92.58681       	93.037674      	93.229774      	94.14717       	92.92242       	93.01281       	94.03402       	94.45488       	92.91023       	93.82202       	94.10638       	93.17322       	93.59671       	93.97454       	93.35664       	93.059364      	93.63344       	94.14766       	94.08871       	93.08062       	94.100746      	94.07808       	94.17294       	94.302986      	94.620605      	93.89225       	94.33778       	94.81021       	93.65901       	95.63651       	93.74136       	93.47636       	95.54195       	94.406006      	93.815544      	95.74936       	95.427155      	94.23396       	94.929184      	95.27873       	93.003654      	94.948906      	95.16301       	93.95382       	93.902214      	94.180504      	93.79973       	94.2264        	93.73967       	93.20059       	94.19373       	94.23177       	92.779655      	94.28157       	94.261894      	92.80458       	94.07327       	94.35777       	92.86059       	94.13794       	94.79495       	93.798744      	94.645386      	93.755424      	93.15909       	94.735405      	93.917694      	93.04879       	94.36555       	94.36          	92.70849       	93.75675       	93.99782       	93.12977       	92.74688       	93.66686       	93.135445      	93.20838       	94.02916       	92.57474       	93.53233       	94.02925       	91.6409        	94.220085      	93.671684      	92.2496        	93.52018       	94.30307       	92.59371       	92.55755       	94.0859        	92.389656      	92.61792       	94.14487       	
93.624886      	93.60873       	93.54971       	93.60928       	93.60189       	93.069466      	92.63638       	92.98861       	93.621956      	92.93401       	93.423584      	93.498764      	93.62332       	94.73619       	93.96032       	93.53805       	95.357544      	94.3442        	93.56456       	94.839584      	94.474106      	94.32272       	94.230644      	94.33088       	94.76449       	94.48933       	94.12605       	95.12853       	94.3744        	94.333755      	94.135376      	94.40141       	94.699165      	93.82776       	94.016304      	95.43505       	94.78087       	94.03394       	95.57906       	94.81885       	93.78139       	94.11039       	94.84443       	94.457565      	94.98824       	94.41737       	94.07043       	94.286125      	93.94203       	93.60086       	94.20342       	93.93359       	93.75883       	93.71435       	93.875946      	94.20096       	93.68968       	93.568855      	94.24044       	94.23793       	93.07386       	93.652466      	94.989365      	93.82921       	92.74965       	94.56212       	94.13693       	93.64258       	94.2749        	94.55787       	94.7414        	93.51018       	94.91256       	94.50335       	94.11816       	93.63278       	93.91387       	94.79785       	94.05286       	93.56889       	94.623375      	94.55286       	94.13095       	94.69798       	95.02339       	93.71967       	93.22974       	94.56866       	93.91044       	93.39303       	94.32376       	93.53377       	93.322495      	92.64294       	93.90687       	93.45271       	93.09188       	92.909744      	93.79003       	94.099174      	
92.2632        	94.02775       	93.980354      	92.97408       	92.715866      	94.47222       	94.375496      	92.74735       	94.29834       	93.35577       	92.54362       	94.57875       	94.627396      	92.863716      	93.54524       	94.86637       	94.24409       	92.74492       	95.32115       	94.51844       	94.01915       	95.85597       	94.901405      	94.52877       	94.90294       	93.91468       	94.4648        	95.44934       	94.56695       	93.58949       	94.82516       	94.715164      	93.71491       	94.5607        	94.18133       	93.88569       	94.20729       	93.34004       	94.24016       	95.035286      	93.37333       	93.36263       	95.20506       	93.76074       	93.83183       	95.572395      	94.43224       	93.65671       	94.97063       	95.37194       	93.30257       	94.95342       	94.3567        	93.170296      	95.43099       	93.33552       	92.66307       	95.162186      	94.373085      	92.65083       	94.61873       	94.9427        	93.084526      	94.6341        	95.321724      	93.21727       	93.8448        	95.35921       	93.542534      	93.40792       	94.87299       	94.02605       	93.45971       	94.89408       	94.6254        	93.766815      	94.39754       	93.92195       	94.69911       	94.57719       	94.141525      	93.599045      	94.938995      	93.20527       	92.93396       	94.32146       	93.843         	92.24703       	93.60343       	93.56775       	92.07865       	93.26302       	93.72557       	92.73723       	93.10266       	93.09128       	93.426216      	93.306206      	93.09647       	93.05681       	
93.34195       	94.63193       	94.29998       	92.696335      	92.39717       	93.65768       	94.15612       	93.53679       	93.745         	94.510345      	93.69556       	93.88721       	94.23461       	93.7071        	95.244064      	94.988884      	93.657295      	95.674324      	95.68077       	93.3008        	95.198364      	95.80786       	93.741165      	93.7494        	95.42817       	93.886         	93.920166      	95.44345       	93.71939       	94.484535      	94.045074      	94.12244       	94.606125      	93.8999        	93.289795      	93.79481       	94.945         	93.838394      	93.64653       	95.145966      	94.899376      	93.85253       	94.35226       	94.15567       	94.23969       	94.70064       	93.73198       	93.89689       	94.61002       	92.99382       	94.09168       	95.10384       	93.33355       	93.39222       	94.626045      	94.7869        	94.140396      	95.06585       	94.36589       	94.81682       	94.45509       	94.64647       	95.30864       	94.06389       	93.879036      	94.572174      	94.332085      	93.401695      	93.77381       	94.35486       	93.75294       	93.74203       	94.14113       	93.70252       	94.94356       	93.62285       	93.32356       	95.0883        	93.09128       	93.45845       	95.24268       	92.83747       	92.85872       	93.84803       	93.58764       	94.18507       	94.291504      	93.51696       	93.71473       	94.20344       	93.16687       	93.23615       	93.85526       	93.17155       	93.18165       	93.79684       	93.98447       	93.2055        	93.08603       	93.769615      	
93.08365       	92.41956       	92.18729       	93.08758       	93.59059       	92.613976      	92.84122       	94.82864       	93.45834       	92.517784      	94.62255       	94.49494       	92.60174       	93.83432       	95.088875      	93.58887       	94.023994      	95.73188       	94.61876       	94.54684       	94.7613        	94.413055      	94.53651       	94.1958        	93.57225       	93.83678       	94.30612       	93.17071       	93.2587        	94.50477       	93.34883       	92.44789       	94.98198       	94.98935       	92.65795       	94.83145       	94.4253        	92.56401       	94.40145       	94.72963       	93.25479       	93.646194      	94.122086      	92.73516       	94.28397       	93.98597       	92.83639       	94.86445       	94.040474      	92.59791       	94.34851       	94.96563       	92.76281       	94.16589       	95.08034       	93.98555       	93.47575       	95.03141       	93.54583       	93.55664       	94.53162       	93.29773       	94.25026       	94.43056       	93.04342       	94.55998       	94.03474       	92.79309       	93.56512       	93.65058       	93.33562       	93.264206      	93.51591       	93.82045       	93.502396      	93.07761       	93.134636      	94.45361       	92.797935      	92.90434       	94.97232       	93.362495      	92.73009       	93.8815        	93.683876      	93.78102       	93.47641       	93.16594       	93.65611       	93.52144       	92.26949       	92.44655       	93.528534      	92.13484       	92.18444       	93.49646       	93.2159        	92.40756       	92.93895       	94.02673       	
92.743866      	92.94287       	92.843956      	93.2954        	94.30253       	94.51042       	93.17293       	93.13705       	94.54569       	93.41594       	93.72043       	94.44746       	94.434074      	94.86773       	94.48189       	95.2129        	95.7426        	95.04346       	95.226166      	95.77824       	95.871826      	94.782715      	95.1259        	95.672905      	95.34007       	94.5357        	95.17798       	95.751915      	94.81802       	94.314384      	95.49533       	95.983406      	94.31027       	95.18981       	95.55542       	94.28615       	94.642685      	94.27038       	94.61152       	94.70494       	94.67485       	94.76932       	95.30523       	94.80387       	94.60495       	94.287384      	95.353714      	94.00171       	93.81157       	94.50941       	93.961555      	93.77026       	93.95478       	93.949615      	94.42359       	93.25126       	93.62953       	94.41865       	93.779205      	93.34266       	93.72163       	93.974625      	93.041275      	93.6222        	94.15425       	94.1656        	94.41794       	94.29736       	93.61405       	94.4878        	93.9187        	92.891205      	94.334236      	93.49167       	93.13383       	93.77452       	93.82547       	93.38009       	92.95676       	93.582954      	93.209404      	92.92343       	93.72957       	94.2937        	94.01603       	93.94938       	93.028         	94.1748        	93.96828       	93.41178       	93.22165       	93.831314      	93.30512       	92.91226       	93.74505       	93.224945      	93.885086      	93.365486      	92.44659       	94.2161        	
92.915115      	92.77589       	93.257126      	93.067924      	92.75252       	93.01199       	93.114876      	93.64732       	93.54878       	93.27105       	94.44095       	93.65471       	93.207146      	94.8166        	94.21728       	93.988976      	94.53593       	95.05295       	94.90987       	94.59916       	94.72027       	94.78865       	95.32756       	94.692986      	94.6172        	94.55748       	94.86551       	94.56414       	93.85123       	94.32972       	95.264656      	93.899055      	93.81742       	95.03393       	93.72726       	94.22747       	94.78258       	94.22737       	94.46338       	94.15543       	94.58969       	94.969604      	94.60438       	93.78304       	94.83464       	95.593124      	93.49771       	94.2904        	95.27799       	93.816414      	93.33528       	94.07909       	94.33237       	94.23715       	94.04123       	93.84139       	95.05296       	94.21015       	93.026596      	93.81303       	94.76045       	92.97624       	93.82255       	95.32059       	93.49943       	94.15764       	94.34087       	93.585785      	93.88004       	93.53781       	93.09024       	93.544716      	92.76905       	93.34376       	93.80185       	93.47225       	93.9559        	94.39148       	94.04724       	93.32246       	94.65904       	93.57187       	93.148346      	94.4237        	94.97061       	92.76928       	94.59327       	94.55367       	93.80104       	93.92362       	94.539215      	93.641975      	93.41365       	93.760254      	93.535286      	94.077385      	93.71638       	93.18553       	94.6818        	94.10376       	
92.45548       	94.1524        	93.94837       	92.74796       	92.52345       	93.48943       	94.14965       	93.58643       	94.1645        	93.53613       	93.57016       	94.588104      	93.75151       	93.14083       	94.68713       	94.75956       	93.13668       	94.20966       	95.50636       	93.736465      	93.924324      	95.33666       	94.00793       	94.87953       	94.111465      	93.49491       	94.48449       	93.86419       	93.25865       	94.60481       	94.55221       	93.24311       	94.350586      	94.573364      	93.652824      	94.02173       	94.20085       	94.3162        	94.77965       	94.29582       	93.55872       	94.19467       	94.76769       	93.56906       	93.93575       	95.57508       	93.71728       	94.20077       	95.3399        	94.13985       	94.29313       	94.46495       	93.945305      	94.749306      	94.613686      	94.05953       	95.217445      	95.206024      	93.7279        	94.6505        	94.703575      	93.74186       	93.84282       	93.422066      	93.498         	94.42187       	94.623375      	93.53455       	94.05945       	95.57251       	93.24059       	94.556885      	95.45072       	93.40407       	93.748375      	95.020546      	94.0123        	93.88317       	93.876884      	94.083244      	94.62645       	93.50265       	93.97194       	94.504524      	93.0539        	93.51662       	93.61735       	93.322586      	93.44303       	93.71471       	92.812836      	94.02593       	93.72306       	92.721306      	94.073326      	94.31715       	92.78382       	93.72503       	95.017944      	92.969635      	
93.28871       	92.45226       	92.98537       	93.88377       	94.48242       	93.4241        	93.538216      	94.238396      	93.16432       	93.44487       	95.01492       	93.77425       	93.146355      	94.40206       	94.54292       	93.47629       	94.1558        	94.32503       	94.02108       	93.93424       	94.047646      	94.371506      	94.75971       	93.49647       	94.572296      	95.229324      	94.40268       	94.06698       	94.92137       	94.452225      	93.328766      	94.102715      	94.6416        	93.81496       	94.34238       	93.7186        	93.80692       	94.22685       	93.79931       	94.13189       	94.541756      	93.13476       	93.658585      	94.7157        	93.48461       	92.72922       	94.92288       	93.71837       	93.69628       	94.34006       	94.24907       	94.24429       	95.060135      	93.45733       	93.28592       	94.4591        	94.22698       	93.057846      	94.485016      	94.03765       	92.70645       	93.43228       	94.81883       	94.04198       	93.92838       	94.464874      	93.17494       	93.85733       	93.55424       	93.13679       	93.84024       	94.20004       	93.651695      	93.39091       	94.13756       	93.092255      	92.59644       	94.31119       	94.05867       	93.11913       	93.67933       	94.085175      	93.92653       	93.06723       	93.882904      	93.98337       	93.66472       	93.035904      	93.569916      	94.73619       	92.9441        	93.47343       	94.5089        	93.368935      	93.27124       	93.94713       	93.723595      	93.597496      	93.16983       	93.30173       	
93.304405      	91.97246       	91.78828       	92.78362       	93.435074      	93.0534        	93.39924       	94.16104       	93.1307        	93.257126      	94.97006       	93.174835      	92.81611       	94.52519       	94.13013       	93.154045      	94.03907       	95.11557       	93.33607       	94.24767       	93.89195       	93.78753       	94.14564       	94.13652       	94.372314      	94.849014      	93.87985       	94.02556       	94.39918       	94.525024      	93.8696        	93.649796      	94.4231        	94.36527       	93.719475      	94.03752       	94.34001       	93.61614       	93.63191       	93.80945       	93.43759       	94.21396       	93.890396      	93.282555      	94.52465       	94.68198       	92.243164      	94.565674      	94.387405      	93.43534       	94.08851       	94.461105      	93.65274       	93.89955       	94.94763       	93.20836       	95.22474       	93.91394       	93.51447       	95.24629       	93.968704      	92.9085        	94.61205       	94.73124       	92.91642       	93.21605       	94.28571       	92.903725      	93.09326       	94.44366       	93.6018        	93.43464       	93.5748        	92.808395      	93.55412       	94.03533       	93.05286       	93.62363       	94.80358       	93.183235      	93.37793       	93.41539       	94.071175      	93.68444       	92.86536       	93.87447       	94.061386      	93.142624      	93.38022       	94.21186       	93.2911        	93.021866      	93.97201       	93.478775      	92.88758       	93.90858       	94.10091       	94.50319       	94.885086      	93.49435       	
92.84268       	93.03671       	93.611244      	93.93472       	93.18994       	93.74748       	94.431625      	93.21883       	94.513054      	94.79053       	94.13847       	94.139206      	95.01656       	94.33845       	93.354965      	94.02304       	94.38879       	93.20922       	93.683846      	93.83149       	94.0298        	93.71216       	93.9609        	93.867836      	94.10143       	93.82719       	93.365326      	93.76526       	94.60196       	93.43243       	94.11406       	94.7857        	93.75468       	93.531364      	94.38822       	94.29891       	94.356735      	93.97568       	94.50172       	94.3545        	94.399185      	94.72462       	93.698006      	93.70987       	94.16226       	93.9397        	93.70085       	94.504364      	95.033195      	92.91451       	94.21803       	95.50318       	93.33377       	93.735916      	94.23079       	93.274956      	93.26369       	94.02751       	92.277626      	93.4286        	94.07084       	92.54761       	93.81771       	95.58525       	92.83461       	93.74116       	94.645645      	93.615814      	93.4515        	94.16084       	92.627655      	93.22023       	93.3612        	92.2579        	93.50065       	93.76652       	92.19656       	93.0153        	93.77255       	92.580376      	92.67154       	94.07366       	93.35998       	92.81153       	93.81619       	93.87314       	93.21536       	93.713936      	93.853516      	93.370674      	93.87554       	93.10709       	93.22803       	94.07626       	93.65572       	92.31763       	93.62509       	94.36724       	93.04855       	93.43567       	
92.97404       	93.058846      	92.90397       	92.73614       	93.26498       	93.94735       	93.39011       	93.804085      	93.80376       	93.372665      	93.43102       	93.84957       	93.97836       	93.85666       	94.06306       	92.94087       	94.122894      	94.15465       	93.93018       	94.07978       	94.209724      	94.46109       	94.103935      	94.15181       	94.02642       	94.90203       	94.000885      	93.899155      	94.82106       	93.589325      	93.78913       	95.21312       	94.45616       	93.92123       	94.29609       	94.09924       	93.81319       	93.75728       	93.31133       	93.38468       	94.41849       	93.62375       	93.54338       	94.04984       	94.55335       	93.20183       	93.308174      	94.297005      	93.44111       	93.25391       	93.755135      	93.009605      	93.38781       	93.769646      	92.56535       	93.48881       	94.176346      	93.332924      	93.52123       	94.747734      	93.00061       	93.157906      	95.07752       	93.69585       	94.259346      	93.70921       	93.987015      	93.58098       	94.1462        	92.92428       	93.00905       	94.3405        	93.27027       	92.68021       	94.15409       	93.719635      	92.58466       	93.73214       	93.56522       	92.83224       	92.78252       	93.34083       	93.68949       	93.86679       	93.441         	93.69674       	94.05872       	93.98003       	93.63851       	93.47356       	93.72315       	93.36397       	92.829414      	93.37932       	93.410614      	93.54555       	93.23111       	93.9713        	94.74646       	93.73894       	
93.41732       	93.21461       	92.94719       	93.403076      	93.75202       	94.27349       	93.320114      	94.106895      	94.69551       	93.913315      	93.7763        	93.96578       	93.22103       	93.56908       	93.4111        	93.060555      	93.6864        	94.091324      	93.58602       	93.4277        	93.86281       	93.733025      	93.298355      	93.79201       	94.51197       	93.70402       	94.082924      	94.1079        	93.948715      	94.3112        	93.31813       	94.16039       	93.909294      	94.229744      	93.43          	94.0128        	95.1023        	93.66847       	93.1844        	94.91956       	93.43807       	93.37513       	94.44319       	93.63154       	93.9486        	95.068375      	94.535774      	93.64681       	94.63123       	94.453285      	94.3934        	93.760635      	94.6562        	93.80561       	93.28531       	93.975174      	94.02161       	94.82851       	93.698044      	94.36131       	94.57697       	93.149864      	93.408394      	93.498344      	93.474976      	94.15333       	93.31275       	93.700615      	93.68178       	93.765816      	93.78155       	93.637924      	93.69096       	93.34374       	93.5006        	93.83842       	93.73095       	94.007866      	93.51456       	93.14916       	94.132126      	93.77845       	92.843475      	94.41614       	94.38118       	93.98537       	93.42689       	93.356445      	94.234055      	94.69625       	93.793076      	94.29573       	94.38695       	93.289185      	93.84024       	94.444954      	93.79744       	93.91024       	94.163704      	94.17956       	
93.30142       	94.21467       	93.88154       	93.14743       	92.71118       	93.94416       	94.16415       	92.804306      	92.95259       	93.67003       	93.28526       	93.313644      	93.11884       	93.03415       	93.74472       	92.5727        	92.6467        	93.860954      	93.31446       	93.192856      	93.48983       	94.113235      	94.05795       	93.78327       	94.50888       	94.019356      	94.02218       	94.25605       	93.86735       	94.66879       	94.67192       	94.067924      	94.83475       	94.29769       	93.62072       	93.94364       	93.973946      	93.46402       	93.77133       	93.81871       	93.62121       	94.20048       	93.46415       	93.7086        	93.848015      	93.71172       	94.22452       	94.13854       	94.48917       	94.75729       	93.52116       	94.14528       	93.995         	93.727974      	93.947426      	93.567825      	93.50693       	93.70174       	94.05082       	93.976814      	94.45765       	93.86512       	93.895424      	94.20744       	93.606606      	93.57464       	93.3941        	93.07606       	94.629745      	93.40539       	92.99491       	93.96809       	93.595566      	93.747185      	94.47885       	93.58393       	93.60864       	94.21386       	93.22415       	93.20707       	93.93825       	93.82006       	92.11136       	93.51369       	94.164276      	92.68586       	93.34233       	93.98706       	93.40994       	94.23111       	94.1027        	93.89555       	93.97252       	94.04334       	93.58107       	93.22087       	95.346466      	93.684456      	94.041435      	95.33467       	
93.51119       	92.55917       	91.95344       	92.15551       	93.20379       	93.54741       	92.510666      	93.292496      	93.932945      	91.98219       	93.01899       	94.42186       	91.90954       	93.160774      	94.40309       	93.37849       	92.921394      	94.186295      	93.42016       	93.03594       	94.347885      	93.38238       	93.29341       	94.30131       	93.30327       	93.15661       	94.43883       	93.36199       	93.058685      	94.53255       	94.59657       	93.80358       	94.27409       	94.232796      	93.39367       	93.9572        	94.290665      	93.636         	95.03495       	94.33373       	93.872894      	94.90031       	93.77391       	93.565475      	93.97389       	94.082466      	93.59721       	93.993614      	93.38928       	94.30915       	94.16073       	92.99075       	94.53087       	94.1909        	93.27933       	93.59659       	94.22122       	93.70474       	93.179184      	93.528435      	93.064         	93.06249       	93.26139       	92.608406      	93.20633       	94.49374       	93.45378       	93.4419        	94.16024       	93.82195       	93.3528        	93.67223       	94.386505      	93.97869       	93.469925      	94.07744       	93.42824       	94.43078       	93.33644       	92.83432       	94.02538       	93.86401       	93.10986       	94.15455       	93.977715      	92.93256       	94.43991       	94.198456      	93.40229       	93.97429       	93.77962       	92.83236       	94.193184      	93.87508       	92.345566      	93.66185       	94.068275      	92.62176       	94.69868       	95.03681       	
93.472176      	93.50384       	92.929085      	93.10462       	93.36206       	93.15198       	93.03498       	93.61849       	93.32541       	92.87706       	93.647224      	93.92372       	93.1081        	92.66329       	94.57718       	93.36976       	92.98328       	93.86691       	93.550064      	93.870026      	93.90013       	93.35036       	94.41309       	94.436646      	93.35346       	94.125244      	95.01693       	93.48889       	93.68068       	94.62486       	94.103         	93.33597       	94.30364       	94.19361       	93.406136      	93.94552       	93.64825       	93.74754       	95.21029       	93.31462       	93.57467       	93.7988        	94.146965      	93.134834      	93.49647       	94.356964      	93.884125      	93.46613       	94.713295      	93.84876       	93.65027       	94.28606       	93.93168       	94.63126       	94.00537       	92.976         	94.09071       	94.33477       	92.96795       	93.563324      	93.55081       	92.35152       	93.60803       	94.42088       	93.0491        	93.513504      	94.86728       	94.10699       	93.03393       	95.25603       	94.44026       	94.11943       	94.88729       	94.05938       	94.17099       	94.284904      	93.50855       	93.496735      	94.8687        	92.81437       	92.53927       	93.9959        	93.69767       	92.22689       	93.35808       	93.648445      	93.89104       	94.03197       	94.121056      	94.07912       	94.52723       	93.652824      	94.46028       	94.613144      	93.48422       	93.64636       	94.66194       	93.738716      	93.60716       	94.14857       	
92.94097       	94.491936      	94.77253       	93.51897       	92.532425      	93.18677       	93.78386       	92.1987        	94.276276      	94.18725       	92.7356        	93.80669       	94.69438       	92.892685      	94.030876      	95.59675       	94.465385      	94.218414      	95.22627       	94.63574       	94.67088       	95.503456      	94.513374      	94.41606       	95.80794       	94.46371       	94.88806       	95.60946       	94.38551       	94.40965       	94.839615      	93.83294       	94.17574       	95.230225      	93.9769        	93.79309       	94.36187       	93.88077       	92.7742        	93.84181       	94.35425       	93.03665       	94.49443       	93.98892       	93.28212       	94.26262       	93.29843       	93.82779       	94.11092       	92.61557       	92.81116       	94.2881        	93.49128       	91.84987       	94.43164       	94.11415       	92.792915      	93.67749       	93.96252       	93.11109       	93.80688       	94.07442       	93.22743       	94.38364       	93.938965      	93.2216        	94.3293        	94.45979       	93.04906       	93.658394      	94.18914       	93.829666      	94.28954       	93.94117       	94.09155       	94.50049       	94.038055      	94.11642       	94.47691       	93.91223       	93.48929       	94.68314       	94.07907       	93.70342       	94.14198       	94.023766      	94.46391       	93.493         	93.149826      	94.11333       	93.92903       	93.76561       	94.37834       	94.0018        	94.14918       	93.7882        	93.94588       	94.423904      	93.89351       	93.94026       	
93.8423        	92.73189       	92.29424       	92.85129       	94.09514       	93.85954       	92.18844       	93.98603       	93.96103       	92.867355      	94.28272       	94.41722       	93.49112       	94.92735       	93.87963       	93.48548       	95.10922       	94.28122       	93.26651       	94.612114      	94.18827       	93.281494      	94.088585      	94.25609       	93.675545      	93.88152       	93.67132       	94.20647       	94.177895      	93.2067        	93.478714      	94.873215      	93.382034      	93.461174      	95.052086      	93.66277       	93.33492       	94.74097       	93.936035      	93.42875       	93.884514      	93.63963       	93.88664       	95.02054       	93.88765       	93.91159       	93.99694       	93.91797       	93.71257       	93.49287       	93.589096      	94.17766       	93.556625      	93.535736      	94.7446        	93.95257       	93.20744       	94.3027        	94.202324      	93.182846      	93.5148        	94.57572       	93.77074       	93.36264       	94.46396       	94.4362        	93.28556       	94.18312       	94.478836      	94.046394      	93.589676      	94.12532       	94.00293       	93.70238       	93.30448       	93.788345      	94.55184       	92.87025       	93.28797       	93.945526      	94.18936       	93.134636      	93.85399       	94.39193       	92.888176      	93.168304      	93.37572       	93.546005      	94.64397       	93.144966      	93.96636       	94.05025       	93.77327       	93.660484      	94.85214       	94.54729       	92.66564       	94.53972       	94.535614      	93.94158       	
94.34801       	93.79293       	93.40226       	92.82146       	93.09298       	94.02809       	93.14796       	93.617516      	93.905426      	92.799736      	94.24218       	94.229         	92.61519       	93.632904      	94.83105       	93.48953       	94.00365       	94.40551       	93.88283       	93.89006       	94.01568       	93.63277       	94.778206      	94.802986      	94.4263        	94.13715       	95.0642        	94.13048       	93.41483       	94.1695        	94.07206       	93.14699       	93.93241       	93.89216       	93.28533       	95.57275       	93.95406       	93.1302        	95.157425      	94.26051       	93.13602       	95.35966       	95.48561       	93.85175       	93.72984       	94.70112       	92.99515       	94.262886      	93.8925        	92.78186       	94.79965       	93.97196       	92.548454      	94.13901       	94.400024      	92.82635       	93.63829       	94.041374      	94.59611       	93.36286       	93.96099       	93.73752       	93.640015      	93.54265       	93.59265       	94.97302       	94.3071        	93.849556      	95.13382       	95.063934      	93.79444       	94.85363       	94.739204      	94.27357       	93.81473       	94.37487       	93.48073       	93.84907       	94.037476      	93.007065      	94.233025      	94.58159       	92.7069        	94.38416       	94.645645      	93.17212       	93.71563       	94.51115       	93.568794      	94.25883       	94.19577       	92.557755      	94.20796       	94.11101       	92.017815      	94.17636       	94.81926       	92.3896        	94.367424      	95.2462        	
93.05285       	94.15819       	93.95946       	93.1137        	92.7446        	93.264786      	93.39249       	92.367966      	94.149536      	93.54851       	93.002975      	94.38649       	94.06238       	93.10575       	94.41078       	94.73136       	93.47187       	93.715935      	94.47648       	94.64787       	93.68848       	95.06487       	94.54003       	93.8249        	94.38331       	93.84108       	94.36551       	94.06897       	93.757515      	94.10131       	94.031425      	93.7424        	93.94911       	94.9209        	94.55932       	93.68478       	94.60937       	95.12304       	93.39808       	94.50944       	94.831345      	94.01949       	94.248535      	94.14731       	94.60872       	94.25875       	93.87854       	94.36639       	94.381836      	93.45061       	92.64111       	93.45845       	93.91484       	92.53438       	93.00631       	93.826546      	92.9626        	93.44675       	94.14352       	93.775116      	94.292305      	94.582115      	93.03303       	93.83172       	95.404015      	92.3287        	94.37525       	95.22258       	92.92939       	93.20698       	95.62719       	92.93982       	92.80578       	95.14901       	93.09455       	92.33143       	94.262695      	92.43427       	93.11026       	94.275185      	93.1694        	92.91923       	94.62723       	92.44364       	92.78615       	94.90796       	92.60987       	92.44055       	94.108345      	93.82547       	92.82585       	93.59225       	93.83271       	92.19406       	94.14963       	93.636406      	93.43306       	95.39281       	94.18488       	93.58232       	
93.84602       	93.117516      	93.067184      	93.39516       	93.83326       	93.885124      	92.98652       	93.73974       	94.30417       	93.21907       	93.5863        	94.53941       	93.93666       	93.19552       	93.899185      	93.60433       	94.247505      	94.17158       	93.61961       	94.71003       	95.11805       	94.442856      	94.22152       	95.634995      	94.89946       	93.42817       	95.579414      	95.30714       	94.45069       	95.30358       	94.97187       	94.854485      	94.971634      	94.60036       	94.71964       	95.74829       	94.99307       	94.369835      	95.34142       	94.591415      	92.916275      	94.84449       	94.879395      	93.83614       	94.63748       	94.24366       	94.23351       	94.32475       	93.57797       	93.243774      	94.20085       	93.65234       	92.175606      	94.71472       	94.47138       	92.439644      	93.86138       	94.84457       	92.44262       	93.45984       	94.54654       	93.30196       	93.54434       	94.69359       	93.921646      	94.16675       	95.40349       	93.37355       	93.91333       	95.69002       	92.72755       	94.219345      	95.454544      	93.41452       	93.850784      	94.96899       	93.34387       	94.05992       	94.81266       	92.50586       	93.67986       	95.08102       	92.33456       	93.36235       	95.654655      	93.66833       	92.729195      	95.52379       	94.14238       	93.334335      	94.92558       	93.863045      	93.58641       	94.34811       	94.16014       	93.9206        	95.18724       	93.70008       	93.765625      	95.520226      	
93.632164      	92.79949       	92.49266       	92.87422       	93.84611       	93.52028       	93.6254        	94.561005      	93.17317       	93.62294       	94.67046       	94.03598       	94.042656      	94.830154      	94.64826       	93.43582       	93.87452       	94.244644      	93.52553       	93.9695        	93.98947       	93.15058       	93.9146        	93.22719       	93.45906       	94.37768       	93.65217       	93.386314      	93.80763       	94.04872       	93.7432        	93.95539       	94.36507       	94.46336       	94.0018        	93.78869       	94.401375      	94.63327       	93.55789       	94.04076       	95.11788       	94.22606       	93.27351       	93.9617        	94.033646      	93.530365      	93.44438       	93.23506       	94.36813       	92.74906       	93.68737       	94.5592        	93.12941       	92.362015      	94.42215       	95.08338       	93.16842       	93.71221       	94.45467       	93.35489       	93.58171       	93.82972       	94.31086       	94.389595      	93.8149        	94.13754       	95.081436      	93.22777       	94.27615       	94.72198       	92.722084      	93.16037       	94.325455      	93.25494       	93.492676      	94.043045      	93.561455      	94.16154       	93.06739       	93.43037       	94.501625      	94.151985      	93.339165      	93.56776       	94.43434       	92.66207       	93.66317       	94.89392       	94.32796       	93.35449       	94.50099       	94.721565      	93.42662       	94.047295      	94.110565      	93.734505      	94.39385       	93.53773       	92.80797       	95.30889       	
92.510796      	94.43164       	95.32255       	94.307724      	92.36408       	93.55497       	95.981316      	93.893555      	93.39582       	95.16371       	94.15397       	93.123116      	94.78108       	93.6617        	94.31576       	93.801956      	93.33165       	94.34052       	94.159706      	92.89185       	94.32927       	95.0432        	93.33948       	94.304405      	95.523155      	92.78726       	94.48536       	95.791046      	92.98075       	93.9609        	95.66639       	94.37132       	93.57032       	94.492035      	94.30142       	93.80804       	94.41487       	93.88538       	94.1223        	94.03682       	92.83866       	94.40848       	94.32557       	92.19801       	94.11856       	95.26915       	92.61812       	94.44793       	95.99352       	93.832306      	94.12839       	95.503815      	93.961464      	93.66422       	95.559364      	94.14729       	93.85578       	94.33385       	93.416504      	94.05382       	94.26408       	92.93138       	93.858315      	94.725334      	93.13302       	93.954544      	95.28199       	93.694824      	92.844894      	95.03521       	93.864494      	93.08641       	94.31398       	93.792145      	94.2278        	93.84693       	93.702156      	94.080025      	93.21183       	93.6317        	94.63649       	93.78148       	93.55363       	94.25155       	94.30891       	93.05306       	94.00855       	95.32475       	93.57974       	93.22669       	94.61007       	93.95196       	93.419426      	94.31452       	94.024376      	94.063         	94.27738       	93.90451       	94.17158       	95.200455      	
94.70702       	94.17953       	94.14188       	93.48959       	93.96284       	94.9211        	94.06087       	93.53641       	93.41905       	93.34654       	94.471886      	93.331314      	94.2753        	94.887085      	93.99198       	94.3756        	94.14411       	94.87997       	94.06511       	93.63649       	94.72255       	94.27928       	93.606125      	93.720566      	94.607506      	94.178825      	93.37434       	94.3264        	94.037384      	93.9815        	93.67647       	93.51513       	95.167305      	93.462654      	94.01967       	95.044         	93.67952       	93.49923       	94.87598       	94.36037       	92.80553       	94.350044      	94.4785        	93.245476      	94.36266       	93.729576      	93.14839       	94.834785      	93.05193       	93.37854       	94.633125      	93.30957       	93.006096      	94.619415      	93.8977        	92.732544      	94.146355      	94.17416       	92.673294      	94.16478       	93.98453       	93.69112       	94.34775       	93.74574       	92.887695      	94.02605       	93.40751       	93.04407       	94.223236      	94.09291       	92.88737       	93.78181       	94.39422       	93.806755      	93.37432       	94.420334      	94.18617       	92.887054      	94.183334      	93.61696       	93.620514      	93.66881       	93.25203       	94.3227        	93.90454       	93.363525      	93.52229       	94.283066      	94.45926       	93.181915      	94.2472        	94.78734       	93.84591       	93.81426       	94.20259       	94.223625      	94.23006       	93.71459       	94.28636       	94.4073        	
94.02843       	93.365234      	92.59364       	92.55603       	93.86443       	94.39804       	93.5987        	93.797134      	94.60348       	94.38051       	94.22926       	94.888466      	94.36864       	94.57286       	93.67551       	93.46679       	95.10219       	94.700035      	93.74693       	94.08662       	94.07856       	93.00888       	93.53988       	94.681526      	93.99654       	94.10575       	95.37459       	94.557785      	94.05319       	95.16312       	94.1525        	94.41337       	94.581055      	94.32917       	93.78398       	94.79615       	93.75435       	93.22861       	94.91763       	93.37642       	92.13319       	93.7673        	93.43721       	93.16706       	93.41666       	93.49843       	93.590195      	93.51647       	93.57989       	93.81269       	94.65394       	93.321625      	93.264694      	94.58377       	93.98487       	92.99971       	93.63101       	93.70491       	93.402115      	93.14415       	94.27277       	93.554245      	93.64637       	93.811165      	93.84527       	94.099815      	92.85943       	94.184         	94.0558        	93.27905       	94.10791       	94.37135       	93.531975      	93.548416      	93.96703       	93.29167       	93.75602       	94.22641       	93.38241       	94.26668       	95.341484      	93.46016       	93.92442       	96.30946       	93.57751       	93.9426        	95.40206       	93.51383       	93.1298        	94.639565      	94.71676       	92.60783       	93.89017       	95.04808       	93.00211       	93.92136       	95.134476      	93.97924       	93.409904      	94.5747        	
93.21518       	92.94833       	93.04602       	93.05486       	93.68531       	94.43661       	93.240555      	92.47954       	95.499825      	93.41324       	93.710625      	94.97997       	93.797714      	93.06762       	93.911835      	94.487686      	93.42908       	93.63204       	95.031876      	94.124054      	93.4883        	95.24342       	94.57987       	92.68126       	94.62301       	95.330696      	93.50028       	93.92136       	95.15541       	94.36319       	93.283005      	94.62821       	93.88771       	93.95821       	94.45715       	93.7722        	94.00209       	94.35975       	93.3886        	94.195404      	94.6878        	92.89965       	92.6045        	94.540764      	93.81745       	92.74475       	95.14364       	94.36459       	94.126205      	94.566635      	94.45874       	95.4456        	94.47111       	94.12943       	94.37834       	94.74305       	93.438156      	93.56599       	94.31025       	93.7814        	93.66356       	93.58077       	93.75431       	93.881454      	92.42415       	93.798164      	93.819786      	93.30474       	93.80366       	93.542305      	94.351         	93.43974       	93.26461       	94.20963       	93.5515        	93.22116       	93.95114       	94.175865      	92.4491        	93.076584      	93.65547       	93.04492       	92.67382       	93.76885       	93.83741       	92.47766       	93.239655      	93.76424       	92.92717       	92.73466       	94.33446       	93.90275       	94.571846      	94.547104      	94.1867        	94.63114       	94.28078       	93.23961       	93.99523       	94.35768       	
92.98207       	93.34309       	93.54892       	93.407455      	92.58571       	92.82068       	94.50277       	93.30164       	92.367516      	93.89549       	94.07614       	92.80305       	93.79286       	94.33735       	92.7052        	94.21666       	94.224846      	93.15939       	93.98441       	94.2646        	93.03529       	94.70379       	95.05253       	92.6846        	94.34001       	95.23909       	93.56634       	93.70135       	93.95183       	93.65909       	92.89881       	93.253174      	93.74943       	93.189125      	93.347046      	93.28747       	93.98176       	92.9189        	92.899734      	94.50013       	92.94052       	92.485306      	94.2609        	93.74854       	92.950485      	93.293365      	94.57359       	91.729965      	93.20306       	95.260216      	92.979385      	93.21225       	95.28675       	93.25973       	92.079254      	93.9949        	93.847046      	92.76823       	93.45348       	94.04466       	93.19719       	94.14234       	93.94952       	94.18464       	94.55352       	93.41938       	93.47737       	95.20935       	93.00843       	93.4108        	94.13298       	93.61108       	92.92944       	93.91005       	93.33609       	93.8012        	94.335075      	92.863556      	94.09586       	94.559525      	92.549835      	93.7308        	94.55373       	92.9854        	92.95076       	94.22339       	93.812546      	92.416664      	94.75528       	94.31772       	92.26458       	94.56758       	93.88863       	93.70634       	93.95084       	93.18803       	94.371025      	93.53803       	93.323944      	94.57734       	
