# www.neaspec.com
# Scan:	 	AFM
# Project:	 	20251007_PS
# Description:	 	
# Date:	 	10/07/2025 14:36:28
# Scanner Center Position (X, Y):	[µm]	49.66	48.17	 
# Rotation:	[°]	0	 	 
# Scan Area (X, Y, Z):	[µm]	5.000	5.000	0.000
# Pixel Area (X, Y, Z):	[px]	100	100	1
# Averaging:	 	1	 	 
# Integration time:	[ms]	5	 	 
# Laser Source:	 	4.5-15 µm nano-FTIR laser
# Detector:	 	R
# Target Wavelength:	[µm]	10.000	 	 
# Demodulation Mode:	 	Fourier
# Tip Frequency:	[Hz]	241,340.500	 	 
# Tip Amplitude:	[mV]	45.700	 	 
# Tapping Amplitude:	[nm]	74.418	 	 
# Modulation Frequency:	[Hz]	0.000	 	 
# Modulation Amplitude:	[mV]	0.000	 	 
# Modulation Offset:	[mV]	0.000	 	 
# Setpoint:	[%]	79.75	 	 
# Regulator (P, I, D):	 	4.206850	8.625812	1.000000
# Tip Potential:	[mV]	0.000	 	 
# M1A Scaling:	[nm/V]	0.426	 	 
# M1A Cantilever Factor:	 	1,000	 	 
# Q-Factor:	 	487.4	 	 
# Version:	 	2.1.11536.0
74.573685      	77.60186       	76.271515      	75.53377       	75.267075      	74.33433       	74.34499       	74.70414       	74.49167       	74.647285      	74.417         	74.493965      	74.43121       	74.24987       	74.58791       	74.326485      	73.063286      	75.709946      	73.01628       	74.31753       	74.85221       	74.43117       	74.49397       	74.80349       	74.499664      	74.668655      	74.74293       	74.13928       	74.64015       	74.40878       	74.21615       	74.64198       	74.57967       	74.423996      	74.673         	74.915146      	74.83477       	73.94949       	73.09354       	73.078865      	70.29602       	73.87356       	74.27557       	74.372475      	74.739624      	74.41155       	74.527176      	74.76357       	74.21467       	74.43073       	74.75889       	74.44556       	74.55367       	74.21231       	74.457375      	74.31951       	74.63341       	74.78661       	74.32495       	74.1482        	74.62141       	74.12671       	74.23416       	74.8802        	77.61301       	75.962944      	75.995125      	76.1883        	74.801186      	74.397606      	74.62157       	74.26805       	74.57461       	74.541855      	74.70372       	74.616066      	74.055695      	74.74502       	74.52981       	74.49858       	74.748665      	74.547905      	74.2301        	74.56734       	74.492256      	74.653915      	74.49852       	74.526054      	74.67653       	74.23379       	74.38923       	74.86388       	74.340195      	74.43547       	74.27199       	74.42119       	74.431595      	74.59196       	74.7927        	74.392426      	
73.98824       	76.427795      	76.343956      	76.039154      	75.426796      	74.45261       	74.499855      	74.459984      	74.487595      	74.63766       	74.48445       	74.37337       	74.565605      	74.68479       	74.4158        	74.56909       	74.616325      	74.47738       	74.302414      	74.47123       	74.51537       	74.399254      	75.01086       	74.43191       	74.37005       	74.77346       	74.4305        	74.68968       	74.49435       	74.340294      	74.69422       	74.19834       	74.61759       	74.63036       	74.477974      	74.75252       	74.87902       	74.12241       	73.06199       	73.128944      	70.82213       	73.13695       	74.351906      	74.7226        	74.53806       	74.47082       	74.57337       	74.742096      	74.2258        	74.48613       	74.46703       	74.412056      	74.32534       	74.73033       	74.327484      	74.4093        	74.47591       	74.59223       	74.37313       	74.23807       	74.513145      	74.47164       	74.149734      	73.08966       	78.50835       	76.36585       	76.08657       	75.75585       	75.200066      	74.37468       	74.56994       	74.52807       	74.683395      	74.252594      	74.65024       	74.64714       	74.2492        	74.59503       	74.48473       	74.27968       	74.72076       	74.58263       	74.78209       	74.324844      	74.60953       	74.3621        	74.67083       	74.62228       	74.27723       	74.6116        	74.654335      	74.42783       	74.32524       	74.43729       	74.58848       	74.61825       	74.39671       	74.34127       	74.559135      	74.383316      	
73.91798       	77.73142       	76.18122       	75.95562       	75.75323       	74.822014      	74.19237       	74.48305       	74.67344       	74.241         	74.48991       	74.55404       	74.706276      	74.338264      	74.55106       	74.40131       	74.58796       	74.03678       	74.81947       	74.57357       	74.374275      	74.38321       	74.7087        	74.56231       	74.454         	74.39478       	74.43943       	74.59193       	74.51833       	74.35573       	74.66096       	74.47378       	74.43925       	74.64794       	74.215126      	74.92823       	75.18598       	74.47722       	73.27966       	73.04795       	71.29686       	72.59857       	74.32412       	74.41118       	74.67312       	74.261246      	74.37239       	74.72511       	74.40557       	74.62774       	74.205124      	74.36172       	74.45643       	74.87113       	74.09604       	74.64387       	74.623764      	74.340485      	74.331955      	74.90889       	74.13763       	74.35494       	74.27976       	73.48531       	77.17338       	76.91704       	75.857994      	76.01999       	75.40107       	74.3792        	74.57444       	74.54826       	74.54755       	74.48159       	74.46013       	74.52396       	74.212654      	74.790405      	74.57015       	74.3087        	74.435074      	74.65163       	74.38175       	74.61937       	74.42175       	74.607544      	74.38684       	74.57527       	74.87065       	74.307396      	74.583496      	74.45182       	74.41516       	74.413376      	74.536545      	74.48907       	74.444016      	74.38213       	74.722145      	74.47114       	
74.17113       	78.2659        	76.73877       	75.76039       	75.83604       	75.022705      	74.29238       	74.48506       	74.383965      	74.59862       	74.597885      	74.2138        	74.71515       	74.369995      	74.48849       	74.40611       	74.68087       	74.701164      	74.30059       	74.63063       	74.49431       	74.5674        	74.38822       	74.560036      	74.57555       	74.50327       	74.31584       	74.771614      	74.34478       	74.53811       	74.71133       	74.12128       	74.71417       	74.442406      	74.64496       	74.57357       	74.73656       	75.001595      	73.26404       	72.069725      	72.53528       	72.45779       	73.806465      	74.76677       	74.22212       	74.375145      	74.69651       	74.17515       	74.66359       	74.55011       	74.3407        	74.4626        	74.51033       	74.51247       	74.61961       	74.30606       	74.79392       	74.398346      	74.20859       	74.56968       	74.393875      	74.4306        	74.213234      	74.22663       	74.94965       	77.43002       	76.48556       	75.54475       	75.66935       	74.89907       	74.502815      	74.290215      	74.38          	74.7525        	74.59279       	74.4529        	74.477104      	74.62641       	74.48964       	74.38115       	74.49473       	74.666985      	74.44669       	74.17934       	74.70785       	74.41522       	74.28005       	74.666435      	74.50967       	74.69201       	74.5146        	74.61375       	74.49819       	74.50458       	74.264786      	74.64766       	74.27208       	74.68035       	74.76403       	74.135025      	
74.28013       	78.37165       	76.59943       	75.877396      	75.561745      	75.52995       	74.132576      	74.602264      	74.20828       	74.717674      	74.645485      	74.141945      	74.85199       	74.41333       	74.26228       	74.536194      	74.381355      	74.56756       	73.3145        	75.05546       	75.44061       	74.72464       	74.096405      	74.447174      	74.40918       	74.570724      	74.62856       	74.25707       	74.56221       	74.75796       	74.403656      	74.3513        	74.37222       	74.47586       	74.85502       	74.32465       	74.82111       	75.10648       	73.72824       	73.029274      	71.986786      	71.92678       	73.662796      	74.40593       	74.52533       	74.663765      	74.603294      	74.43432       	74.25626       	74.62737       	74.45144       	74.280624      	74.29828       	74.52395       	74.611336      	74.73059       	74.34894       	74.34067       	74.40916       	74.45322       	74.500404      	74.17559       	74.189896      	74.32496       	74.79875       	77.35323       	76.20508       	75.78944       	75.75234       	75.09913       	74.34856       	74.68733       	74.351814      	74.647804      	74.50479       	74.47276       	74.60212       	74.5615        	74.34648       	74.56192       	74.699974      	74.33996       	74.552986      	74.81162       	74.30298       	74.687546      	74.50899       	74.36958       	74.5486        	74.525024      	74.475204      	74.633965      	74.57164       	74.31429       	74.79785       	74.619934      	74.355965      	74.466255      	74.66162       	74.45035       	
74.07782       	76.875694      	76.807945      	76.80688       	75.972946      	75.596214      	74.55798       	74.18606       	74.21842       	74.88287       	74.56622       	74.38561       	74.51009       	74.4874        	74.753525      	74.30573       	74.46618       	74.723366      	74.329765      	74.758415      	74.39742       	74.44982       	74.292915      	74.841896      	74.370674      	74.44792       	74.415825      	74.31422       	74.826675      	74.58387       	74.47792       	74.37221       	74.47328       	74.798256      	74.221535      	74.39108       	74.65625       	75.25474       	74.052155      	72.96913       	72.28064       	72.006935      	72.88376       	74.49297       	74.57859       	74.59361       	74.45679       	74.63781       	74.33382       	74.54228       	74.24696       	74.558495      	74.69881       	74.40019       	74.46463       	73.954414      	74.1665        	74.64752       	74.29264       	74.46366       	74.76406       	74.21584       	74.106544      	74.75125       	73.50271       	78.153786      	76.40398       	76.59767       	75.86285       	75.1078        	74.24226       	74.7326        	74.62179       	74.27288       	74.013626      	74.87847       	74.31439       	74.682915      	74.5351        	74.177185      	74.29586       	73.61365       	75.78393       	74.66288       	74.183266      	74.695145      	74.56195       	74.239784      	74.737015      	74.45215       	74.58307       	74.49452       	74.51717       	74.67687       	74.43536       	74.5146        	74.27338       	74.581116      	74.35071       	74.24663       	
74.26269       	74.77625       	78.48714       	76.43641       	75.59423       	75.85296       	74.8247        	74.12573       	74.52572       	74.546394      	74.2789        	74.67839       	74.61243       	74.48907       	74.3465        	74.52368       	74.49522       	74.35939       	74.41304       	74.874596      	74.157936      	74.984436      	74.2115        	74.42018       	74.86457       	74.31402       	74.52315       	74.265076      	74.95597       	74.288284      	74.58134       	74.81042       	74.16818       	74.520035      	74.448906      	74.62782       	74.57669       	74.81956       	74.37296       	73.34165       	72.152176      	72.170876      	71.85807       	74.49735       	74.66045       	74.28974       	74.37256       	74.331894      	74.89826       	74.382034      	74.29107       	74.48847       	74.56036       	74.388466      	74.58039       	74.296745      	73.95124       	75.06813       	74.445816      	74.98178       	74.2037        	74.28588       	74.560974      	73.891594      	73.26192       	77.96056       	76.53804       	76.102066      	76.15152       	75.037056      	74.380394      	74.65921       	74.523895      	74.31387       	74.778244      	74.62798       	74.58499       	74.36689       	74.479675      	74.51223       	74.72447       	74.331856      	74.51459       	74.45004       	74.49739       	74.421234      	74.94972       	73.84446       	74.58383       	75.12628       	73.93832       	74.66486       	74.495895      	74.24806       	74.65599       	73.61521       	73.88766       	74.302505      	74.7625        	75.03694       	
73.87581       	74.060074      	78.290215      	76.73454       	76.28615       	75.85423       	74.12674       	74.52098       	74.30055       	74.815765      	74.164         	74.58712       	74.61036       	74.63107       	74.34941       	74.33795       	74.85779       	74.256935      	74.90744       	74.03515       	74.659515      	74.56955       	74.52325       	74.33848       	74.41591       	74.58864       	74.513954      	74.57687       	74.41562       	74.77411       	74.31497       	74.49664       	74.34688       	74.69716       	74.81967       	74.32907       	74.43226       	74.90829       	74.59892       	73.60047       	72.99936       	72.03921       	71.835         	74.20495       	74.42041       	74.4532        	74.58583       	74.3556        	74.69493       	74.231         	74.49676       	74.522125      	74.82437       	74.16271       	74.55209       	74.24261       	74.38574       	74.59251       	74.45182       	74.50882       	74.32222       	74.197845      	74.34997       	74.47186       	73.54166       	77.11841       	77.01939       	76.22133       	75.63673       	75.33776       	74.391205      	74.42175       	74.54846       	74.474075      	74.64214       	74.32972       	74.63785       	74.501976      	74.964294      	74.26888       	74.54236       	74.48612       	74.4802        	74.673416      	74.33609       	74.19363       	74.55094       	74.89576       	74.57276       	74.496086      	74.53348       	74.04712       	74.26171       	74.4299        	74.280594      	74.11205       	72.85922       	73.37475       	74.948135      	75.80924       	
74.55922       	73.69803       	78.19766       	76.974205      	75.722725      	75.68865       	74.65622       	74.70789       	74.249596      	74.192505      	74.544205      	74.92088       	74.200645      	74.42311       	74.59894       	74.31018       	74.54852       	74.89246       	74.63106       	74.46492       	74.52948       	74.19666       	74.61421       	73.67162       	75.152214      	74.71296       	74.49951       	74.29384       	74.806564      	74.60229       	74.31441       	74.42224       	74.87971       	74.18628       	74.5324        	74.11328       	74.20069       	75.13137       	74.78545       	73.91658       	73.00903       	72.17081       	72.05286       	72.6685        	74.316795      	74.65266       	73.9637        	74.995834      	74.63679       	74.31774       	74.63243       	74.42182       	74.321754      	74.576324      	73.938416      	74.86052       	74.505295      	74.585526      	74.305664      	74.65672       	74.30258       	74.44355       	74.58701       	74.2296        	73.612915      	75.687004      	77.23049       	76.01797       	76.41823       	75.516304      	74.55839       	74.499374      	74.174484      	74.845375      	74.80288       	74.330505      	74.46622       	74.55541       	73.78948       	75.09584       	74.24763       	74.98088       	74.38777       	74.54497       	74.21558       	74.67958       	74.45047       	74.41004       	74.52801       	74.42879       	73.99722       	74.187645      	74.21433       	73.94377       	74.50799       	74.293236      	73.80438       	74.40133       	72.819435      	73.000725      	
73.87498       	73.29407       	77.409615      	77.01331       	76.399796      	75.60077       	75.02335       	74.63641       	74.37657       	74.17094       	74.72092       	74.33774       	74.73888       	73.712006      	75.021484      	74.86465       	74.31356       	74.40665       	74.49241       	74.4592        	74.65877       	74.52483       	74.57991       	74.25521       	74.170975      	74.45277       	74.759895      	74.68647       	74.27332       	74.648735      	74.727715      	74.167114      	74.74503       	74.45308       	74.47957       	74.727455      	74.664085      	74.60595       	74.590965      	74.24776       	73.39935       	72.02206       	71.82073       	73.501495      	74.04214       	74.60855       	74.24701       	74.7732        	74.3617        	74.41597       	74.568825      	74.54047       	74.43833       	74.43023       	74.27738       	74.28122       	74.847084      	74.78369       	74.28888       	73.74248       	74.29829       	74.97121       	74.95852       	74.05427       	74.10435       	73.81062       	78.75064       	76.28983       	75.9233        	75.51854       	74.68161       	74.692276      	74.497574      	74.65562       	74.43418       	74.67898       	74.36321       	74.37405       	74.78328       	74.25113       	74.05644       	74.8261        	75.04125       	74.42339       	74.06051       	74.23952       	74.098335      	74.48347       	74.10639       	74.14003       	74.23494       	74.111404      	74.63504       	73.980995      	74.330215      	73.96845       	72.727264      	73.15821       	73.05946       	72.63474       	
74.15636       	73.59433       	77.10722       	77.37533       	76.06544       	75.85427       	75.47141       	74.10241       	74.6269        	74.52008       	74.33026       	74.53141       	74.44284       	74.41744       	74.54459       	74.57922       	74.446335      	74.69411       	74.48208       	74.39711       	74.32867       	74.88868       	74.439476      	74.494026      	74.482635      	74.38148       	74.66697       	74.93832       	74.190895      	74.73031       	74.45091       	74.724884      	74.42236       	74.21718       	74.582825      	74.46308       	74.526054      	74.61942       	74.97448       	74.31057       	73.32227       	73.1781        	71.41548       	72.468414      	74.48529       	74.276596      	74.6485        	74.50227       	74.40883       	74.55774       	74.498474      	74.403114      	74.67741       	74.15636       	74.76585       	74.27589       	74.73752       	74.16425       	74.64113       	74.470825      	74.13899       	74.90673       	74.16069       	74.22472       	74.242         	73.42207       	78.816925      	76.48514       	75.7903        	75.83867       	75.25426       	74.5527        	74.2552        	74.24396       	74.7849        	74.59988       	74.48422       	74.5231        	74.25149       	74.473625      	74.32243       	74.18856       	73.7772        	74.6284        	74.06465       	74.253365      	74.10253       	74.75004       	74.1731        	74.01997       	74.27977       	74.06753       	74.30729       	73.710686      	73.793884      	72.66876       	73.22427       	74.56816       	74.39259       	73.238525      	
74.14211       	74.048195      	76.34109       	77.49565       	75.849045      	75.68237       	75.851746      	74.80394       	74.45068       	74.50561       	74.31977       	74.60476       	74.611         	74.257355      	74.53381       	74.52131       	74.6166        	74.22786       	74.80249       	74.48063       	74.54318       	74.439064      	74.71078       	74.59712       	74.457085      	74.38647       	74.53785       	74.56007       	74.41897       	74.64242       	74.54314       	74.2609        	74.53225       	74.52247       	74.53144       	74.66193       	74.61616       	74.19562       	74.9161        	74.40184       	73.59953       	73.11011       	72.021286      	71.6764        	73.18638       	74.59903       	74.389534      	74.40292       	74.54032       	74.56578       	74.533585      	74.340004      	74.65993       	74.402054      	74.684074      	74.0922        	74.90153       	74.24574       	74.28317       	74.90661       	74.36161       	73.97913       	74.88089       	74.5288        	74.18309       	73.00126       	77.85469       	76.78625       	75.939026      	75.67963       	74.94949       	74.844765      	73.43713       	74.60742       	75.30585       	74.6323        	74.34341       	74.06236       	74.191216      	73.958176      	74.281685      	73.88017       	74.37623       	74.6155        	74.15142       	74.097374      	74.28031       	74.60632       	73.657936      	74.08245       	73.54498       	72.858795      	74.39899       	74.62878       	74.17703       	74.41483       	73.72302       	74.76303       	75.5826        	75.368004      	
74.35435       	74.032845      	74.03692       	77.71189       	76.45583       	76.698006      	75.931175      	74.695694      	74.2855        	74.82517       	74.33787       	74.34753       	74.69634       	74.40166       	74.382286      	74.78449       	74.25536       	74.66394       	74.22788       	74.41085       	74.82928       	74.18366       	74.93791       	74.357666      	74.77432       	74.541214      	74.55832       	74.5206        	74.6071        	74.41477       	74.433464      	74.808266      	74.20971       	74.537186      	74.71267       	74.38696       	74.25265       	74.53816       	74.825134      	74.46804       	73.97777       	72.87574       	72.31422       	71.96077       	73.59987       	74.55445       	74.575905      	74.40742       	74.594025      	74.44665       	74.532425      	74.3319        	74.03083       	75.00283       	74.53756       	74.364876      	74.55515       	74.529526      	74.120186      	74.78056       	74.41498       	74.24904       	74.42408       	74.480286      	74.38918       	74.03589       	75.308365      	77.84063       	76.1401        	75.409584      	75.003586      	74.611206      	74.61523       	74.55399       	74.19619       	73.93808       	74.50883       	74.07305       	74.140175      	74.076126      	74.15352       	74.557816      	73.62047       	74.007416      	74.4121        	73.60784       	73.69822       	73.68857       	74.21426       	74.75867       	74.474815      	74.46467       	74.73762       	74.328156      	74.56248       	74.51907       	74.07822       	74.28918       	74.90169       	75.06994       	
74.40377       	74.49197       	72.84118       	77.714836      	77.23349       	76.42125       	76.17137       	75.67791       	73.5825        	74.81047       	75.04293       	73.800865      	74.48482       	74.3907        	74.582344      	74.72095       	74.49049       	74.34621       	74.55907       	74.705765      	74.507965      	74.33544       	74.55571       	74.344086      	74.50488       	74.63869       	74.436325      	74.705124      	74.46713       	74.29963       	75.09467       	74.045815      	74.834         	74.422424      	74.484276      	74.37136       	74.04166       	74.99407       	74.72715       	74.48423       	74.2856        	72.98082       	73.09807       	71.595375      	73.09137       	74.38917       	74.379135      	74.74373       	74.39926       	74.24838       	74.67644       	74.5642        	74.71321       	74.179634      	74.601616      	74.2694        	74.519806      	74.593315      	74.69844       	74.41037       	74.70049       	74.180084      	74.63261       	74.26621       	74.37914       	74.15934       	74.00263       	77.27053       	75.131386      	75.36726       	75.607735      	74.809006      	74.546074      	73.98274       	74.32322       	75.01211       	74.88277       	74.386444      	73.66909       	73.95924       	73.890114      	72.91922       	74.018486      	74.98499       	74.13087       	74.63826       	74.56738       	74.835815      	74.15738       	74.82451       	74.46156       	74.28482       	74.79164       	74.02947       	74.42578       	74.62158       	74.69507       	74.76442       	75.08308       	74.909         	
74.4021        	74.75298       	73.06222       	78.201164      	77.19726       	76.30042       	75.36021       	75.74262       	74.8244        	73.01317       	75.199745      	74.21656       	74.437386      	74.50428       	74.40491       	74.4832        	74.667244      	74.50519       	74.336006      	74.54363       	74.7613        	74.53853       	74.48093       	74.40184       	74.49335       	74.79428       	74.2844        	74.637276      	74.4783        	74.410835      	74.521095      	74.7588        	74.39198       	74.273796      	74.69664       	74.34241       	74.472466      	74.86545       	74.62682       	74.66398       	74.34738       	73.462204      	72.75222       	71.810616      	72.11964       	74.37018       	74.38145       	74.4877        	74.61596       	74.497795      	74.57558       	74.372185      	74.249344      	74.773544      	74.526695      	74.5396        	74.83247       	74.244675      	74.754364      	74.383286      	74.06726       	74.74007       	74.31553       	74.0181        	74.732666      	74.2738        	74.16683       	74.6002        	75.38157       	76.51736       	75.88243       	74.73881       	74.89393       	74.775246      	72.29401       	74.63009       	74.90292       	74.81755       	72.67812       	74.12872       	74.55432       	74.415764      	74.10431       	74.877686      	74.49017       	74.35853       	74.57404       	74.605736      	74.57327       	74.48404       	74.61753       	74.053986      	74.456635      	74.60176       	74.3909        	74.24247       	74.46431       	74.82348       	74.5966        	74.27092       	
74.38567       	74.31154       	73.807495      	77.11243       	77.12087       	75.83523       	75.48031       	75.7781        	74.53537       	74.31281       	74.83121       	74.49835       	74.33015       	74.57789       	74.58024       	74.241936      	74.47259       	74.86247       	74.07427       	74.60435       	74.62688       	74.56524       	74.18373       	74.72875       	74.47865       	74.48384       	74.65821       	74.51752       	74.58381       	74.38571       	74.48812       	74.652         	74.604546      	74.484116      	74.48752       	74.65801       	74.5066        	74.46584       	74.72965       	74.719315      	74.20095       	73.444565      	72.91177       	72.27737       	72.11947       	74.01333       	74.57775       	74.17578       	74.47945       	74.85533       	74.24444       	74.34963       	74.50494       	74.80339       	73.85799       	75.02224       	74.44701       	74.64297       	74.370026      	74.08407       	74.65712       	74.39733       	74.170235      	74.7716        	74.43956       	74.834854      	74.10725       	74.516335      	74.35373       	75.72535       	75.69271       	74.544174      	74.244064      	74.574196      	73.11308       	74.54509       	74.67862       	74.51446       	74.269936      	74.86924       	74.415825      	74.60739       	74.52412       	74.441         	74.56305       	74.31146       	74.528564      	74.435974      	74.32169       	74.77873       	74.75827       	74.38124       	74.430305      	74.24426       	74.74302       	74.53111       	74.550964      	74.35455       	74.82518       	74.74576       	
74.390915      	74.65526       	73.98683       	74.78821       	78.139244      	76.49196       	75.66877       	75.86962       	75.31469       	74.36825       	74.34764       	74.49739       	74.4739        	74.57023       	74.576355      	74.29199       	74.72418       	74.451515      	74.45981       	74.69222       	74.480125      	74.480576      	74.66041       	74.40168       	74.578026      	74.43008       	74.44557       	74.50191       	74.329575      	74.73606       	74.66583       	74.486336      	74.41521       	74.56273       	74.21682       	74.59807       	74.44813       	74.846275      	74.34215       	75.187035      	74.5534        	73.83612       	73.16692       	72.22933       	71.482994      	73.90456       	74.58999       	74.46726       	74.44061       	74.75702       	74.42265       	74.33267       	74.275024      	74.29987       	74.65166       	74.24785       	75.220314      	74.07226       	74.72756       	74.31898       	74.39431       	74.95735       	74.269806      	74.500336      	74.406425      	74.586205      	74.740875      	74.22308       	74.432434      	74.50267       	74.43752       	75.22811       	74.478455      	74.278725      	74.084305      	74.97291       	74.243         	74.87966       	74.631996      	74.18371       	74.91178       	74.47837       	74.31066       	74.414085      	74.491844      	74.35684       	74.26372       	74.89234       	74.39143       	74.46708       	74.62066       	74.385544      	74.468414      	74.61317       	74.499565      	74.308         	74.59464       	74.661865      	74.790245      	74.668106      	
74.4009        	74.241516      	73.8911        	73.7009        	77.5342        	76.457466      	76.35979       	76.12358       	75.438484      	74.50506       	74.27691       	74.60121       	74.54799       	74.361145      	74.42269       	74.74997       	74.39227       	74.43177       	74.40453       	74.62627       	74.58595       	74.509865      	74.35142       	74.537926      	74.552704      	74.400986      	74.62643       	74.32676       	74.43229       	74.75293       	74.35264       	74.7359        	74.33133       	74.556984      	74.46015       	74.898155      	74.024345      	74.86819       	74.55686       	74.77455       	74.558975      	73.67432       	73.61985       	72.420105      	71.8763        	73.33521       	74.28596       	74.20172       	74.96469       	74.45306       	74.45487       	74.28298       	74.63535       	74.2854        	74.60678       	74.47642       	74.58645       	74.43675       	74.3225        	74.76174       	74.19647       	74.86851       	74.400566      	74.59184       	74.54829       	74.31589       	74.71088       	74.69607       	74.365135      	74.596985      	74.40864       	74.84142       	74.339264      	74.737434      	74.624985      	74.09021       	74.63768       	74.903915      	74.555916      	73.88846       	74.84282       	74.43628       	74.79361       	74.315994      	74.37865       	74.713295      	74.37503       	74.4384        	74.59153       	74.51375       	74.73727       	74.32069       	74.504166      	74.3561        	74.655754      	74.80519       	74.202065      	74.63552       	74.86698       	74.519485      	
74.42143       	74.35282       	74.4453        	73.35899       	76.024666      	77.563286      	76.4713        	76.32349       	75.551926      	74.34586       	74.34039       	74.509605      	74.73459       	74.37706       	74.15083       	74.561714      	74.81562       	74.35602       	74.505714      	75.01713       	73.9259        	74.64182       	74.5563        	74.52615       	74.41955       	74.47379       	74.41583       	74.70546       	74.55022       	74.4719        	74.54956       	74.43665       	74.757965      	74.421974      	74.42334       	74.76849       	73.99604       	74.97083       	74.68348       	74.61972       	74.75892       	74.24492       	73.62514       	72.860825      	71.44815       	72.44255       	74.34768       	74.430725      	74.55499       	74.29065       	74.5415        	74.3249        	74.65357       	74.57027       	74.5444        	74.15271       	74.652885      	74.57736       	74.42153       	74.1695        	74.695885      	74.676605      	74.48376       	74.42887       	74.32198       	74.485405      	74.71969       	74.265854      	74.78803       	73.99375       	75.418724      	74.27605       	74.88441       	74.28924       	74.70113       	74.1542        	74.69104       	74.724785      	74.32427       	74.29534       	74.68846       	74.37266       	74.519356      	74.478615      	74.36938       	74.68217       	74.09404       	75.26676       	74.50584       	74.096         	74.07226       	74.82506       	74.48747       	74.17182       	74.64824       	74.317184      	74.416145      	74.52825       	74.83377       	74.511284      	
74.301704      	74.72247       	74.2005        	73.72714       	75.63595       	77.72996       	76.24695       	75.649704      	75.63228       	75.01505       	74.44385       	74.37937       	74.17635       	74.86445       	74.55304       	74.26877       	74.66868       	74.36289       	74.5754        	74.71329       	74.01843       	74.80662       	74.49742       	74.282036      	74.73459       	74.733986      	74.62137       	74.290436      	74.66735       	74.44861       	74.55054       	74.50714       	74.5225        	74.41219       	74.52547       	74.36909       	74.898865      	73.97225       	74.62174       	74.73349       	74.795616      	74.05585       	73.66955       	73.561424      	71.79454       	72.18683       	73.91819       	74.57111       	74.49765       	74.491104      	74.48119       	74.449425      	74.42993       	74.58768       	74.38577       	74.57256       	74.35117       	74.81852       	74.47932       	74.38876       	74.356895      	74.65637       	74.52556       	74.38042       	73.93804       	75.33486       	74.02712       	74.605034      	74.49881       	74.7883        	74.06238       	75.14267       	74.53218       	74.564514      	74.205055      	74.59399       	74.9499        	74.32289       	74.25841       	74.83948       	74.03587       	74.44416       	74.42788       	74.577736      	74.57292       	74.47885       	74.656784      	74.39685       	74.521034      	74.630844      	74.35306       	74.55887       	74.6277        	74.623146      	74.306114      	74.38988       	74.4446        	74.48746       	74.781494      	74.95507       	
74.31526       	74.35223       	74.27285       	74.14476       	74.14462       	78.20425       	76.12831       	75.98181       	76.06938       	75.04042       	74.40868       	73.910484      	75.46525       	73.962715      	74.67823       	74.04564       	74.777306      	74.63997       	74.50615       	74.285545      	74.63006       	74.73422       	74.287636      	74.56027       	74.37038       	74.46049       	74.35905       	74.75001       	74.4585        	74.43567       	74.59604       	74.715996      	74.103485      	74.71755       	74.73478       	74.4208        	74.22087       	74.20747       	73.90319       	74.65502       	74.30978       	74.10405       	74.29352       	74.01108       	72.01813       	72.687805      	73.88872       	74.23871       	74.59381       	74.357605      	74.55455       	74.584496      	74.32304       	74.58371       	74.786644      	74.495476      	74.448654      	74.600464      	74.52373       	74.26009       	74.77106       	74.45441       	74.3345        	74.71667       	74.38881       	74.219734      	74.989784      	74.267555      	74.57456       	74.54969       	74.65571       	74.696724      	74.441605      	74.47804       	74.36491       	74.776695      	74.39353       	74.509514      	74.39987       	74.502594      	74.41565       	74.738754      	74.31119       	74.77558       	74.38174       	74.63447       	74.323         	74.28321       	74.88722       	74.29378       	74.567924      	74.62028       	74.508705      	74.549126      	74.52726       	74.62845       	74.52958       	74.69044       	74.37806       	74.550255      	
74.60068       	74.29887       	74.250565      	74.64486       	73.47458       	77.1013        	77.29544       	75.99475       	75.61283       	74.244644      	74.4198        	76.09566       	75.37619       	73.33149       	74.43568       	74.30139       	74.46307       	74.87813       	74.35864       	74.33592       	74.64283       	74.43577       	74.548965      	74.31114       	74.50059       	74.65922       	74.55142       	74.36891       	74.41894       	74.451645      	74.527145      	74.64986       	73.694214      	74.4215        	74.76572       	74.19162       	73.966156      	73.95659       	74.65691       	73.82345       	73.95338       	74.993355      	74.38557       	73.709724      	73.01922       	72.88575       	73.79101       	74.3133        	74.3957        	74.859344      	74.47465       	74.34671       	74.628914      	74.028984      	74.82907       	74.558174      	74.71172       	74.42793       	74.45527       	74.53995       	74.589195      	74.62183       	74.35967       	74.69747       	74.34917       	74.34906       	74.38486       	74.75079       	74.33156       	74.535416      	74.5534        	74.91441       	74.58397       	74.509735      	74.55959       	74.58755       	74.38261       	74.79545       	74.27117       	74.58687       	74.70185       	74.44555       	74.62065       	74.4573        	74.28026       	74.6061        	74.36751       	74.56089       	74.66335       	74.42282       	74.63993       	74.36209       	74.430046      	74.66577       	74.388756      	74.14525       	74.56208       	74.65362       	75.02068       	74.675964      	
74.352325      	74.562874      	74.46745       	74.24664       	73.48014       	76.848915      	77.20999       	76.11164       	76.08203       	75.603584      	74.34097       	74.66646       	74.56123       	74.33177       	74.49408       	74.32126       	74.74215       	74.24334       	74.56093       	74.53229       	74.23234       	74.68501       	74.37905       	74.60576       	74.49955       	74.69541       	74.450066      	74.2429        	74.27213       	74.28505       	74.702484      	73.44352       	74.51817       	74.393456      	73.8472        	74.33757       	74.16456       	74.319214      	74.23036       	74.15654       	74.6997        	72.91178       	73.896774      	73.70225       	73.79428       	74.45355       	74.20267       	74.706215      	74.25188       	74.71918       	74.27984       	74.69944       	74.46265       	74.56754       	74.75054       	74.37991       	74.50456       	74.265396      	74.57241       	74.350784      	74.6297        	74.42995       	74.6303        	74.22978       	74.589516      	74.61456       	74.463234      	74.61152       	74.42502       	74.659355      	74.612404      	74.4468        	74.94123       	74.42967       	74.5321        	74.46163       	74.12495       	74.37185       	74.81705       	74.46425       	74.82616       	74.02568       	74.71041       	74.63538       	74.323044      	74.90926       	74.30362       	74.16087       	74.48251       	74.628815      	74.433266      	74.39671       	74.42541       	74.68369       	74.32188       	74.528984      	74.43306       	74.395966      	74.628105      	74.577415      	
74.6053        	74.24788       	74.31218       	74.31292       	73.964096      	75.87134       	77.57971       	75.95206       	75.953476      	75.775795      	74.440254      	74.45852       	74.50816       	74.59077       	74.513084      	74.42927       	74.21442       	74.795654      	74.691696      	74.06891       	74.606766      	74.927284      	74.28705       	74.3038        	74.11959       	74.41655       	74.100746      	74.11686       	74.07992       	74.43534       	74.23718       	73.85843       	74.35531       	74.66267       	73.72173       	74.72836       	73.89283       	73.88683       	73.92141       	73.716225      	74.159676      	73.94848       	74.31935       	74.4685        	74.29432       	74.33889       	74.55545       	74.748665      	74.41882       	74.49797       	74.77915       	74.69848       	74.04168       	74.873276      	74.34607       	74.35697       	74.63199       	74.83526       	74.134605      	74.55259       	74.5345        	74.55149       	74.54346       	74.547935      	74.50043       	74.315254      	74.51194       	74.70624       	74.35111       	74.46907       	74.81146       	74.388405      	75.021324      	74.25128       	74.48506       	74.69029       	74.0163        	74.8637        	74.59009       	74.520294      	74.03477       	74.59766       	74.31251       	74.84013       	74.636986      	74.448654      	74.46387       	74.535774      	74.45079       	74.56596       	74.4221        	74.57501       	74.504135      	74.62627       	74.434044      	74.64838       	74.55501       	74.56415       	74.37511       	74.5916        	
74.67348       	74.07528       	74.63591       	74.36065       	74.078636      	74.381615      	78.712036      	76.150185      	76.12823       	75.95105       	74.53062       	74.393654      	74.69635       	74.7943        	74.18769       	74.51494       	74.579056      	74.476036      	74.32235       	74.116554      	74.55017       	74.3593        	74.12224       	74.31837       	74.16922       	74.10948       	74.26997       	74.20618       	74.0498        	74.55174       	74.42473       	74.19104       	73.64288       	74.370636      	73.00523       	73.62308       	74.299255      	74.51624       	74.50943       	74.86785       	74.33087       	74.45724       	74.64708       	74.19894       	74.40371       	74.17057       	74.73682       	74.629234      	74.420815      	74.44019       	74.567764      	74.55297       	74.346054      	74.60692       	74.39596       	74.53008       	74.59091       	74.5697        	74.38533       	74.341774      	74.63016       	74.45029       	74.35474       	74.633         	74.3734        	74.32755       	74.68029       	74.607346      	74.36366       	74.5365        	74.83118       	74.25968       	74.71134       	74.43321       	74.83245       	74.46031       	74.20574       	74.64727       	74.398026      	74.088875      	74.675865      	74.6309        	74.53607       	74.42247       	74.668526      	74.24833       	74.826996      	74.16055       	74.66735       	74.63434       	74.476875      	74.43475       	74.51982       	74.32361       	74.532486      	74.52227       	74.66856       	74.55471       	74.582184      	74.41575       	
74.365326      	74.627304      	73.399124      	75.71349       	74.28192       	73.328415      	77.96262       	76.01464       	75.91908       	76.3769        	75.592514      	74.57935       	74.49074       	74.384926      	74.46273       	74.25918       	73.72065       	74.51971       	73.73777       	74.718605      	72.955505      	74.20886       	74.165794      	74.44769       	74.4791        	74.27508       	73.93915       	74.35163       	74.6581        	74.794365      	73.52694       	73.132935      	74.52581       	74.213264      	74.43885       	74.66337       	74.3341        	74.77707       	74.599594      	73.99976       	74.685974      	74.829445      	74.47099       	74.46013       	74.38694       	74.428         	74.47624       	74.28014       	74.68357       	74.4825        	74.31376       	74.72413       	74.4785        	74.46431       	74.7937        	73.98898       	74.89405       	74.38192       	74.253975      	74.77825       	74.28654       	74.95481       	74.36656       	74.565414      	74.40141       	74.46425       	74.386826      	74.43454       	74.42068       	74.642075      	74.66494       	74.690346      	74.624855      	74.18522       	74.564354      	74.75552       	74.67632       	74.6585        	74.14602       	74.70135       	74.62557       	74.24511       	74.31601       	74.663605      	74.72397       	74.331406      	74.77193       	74.61391       	74.3314        	74.369064      	74.06952       	75.161766      	74.33865       	74.35546       	74.3526        	74.52232       	74.54718       	74.67642       	74.56049       	74.3611        	
74.50504       	74.48473       	74.47266       	74.105255      	74.73445       	73.11396       	77.14192       	77.07143       	76.01272       	75.81892       	74.47758       	74.44792       	74.81354       	74.36529       	73.84224       	74.46603       	74.62382       	73.89433       	73.792854      	74.49722       	74.33172       	74.43511       	74.09013       	74.2591        	74.748505      	73.05701       	73.971794      	72.89812       	74.12285       	74.935036      	74.67093       	74.56012       	74.303         	74.549576      	74.355125      	74.84939       	74.45758       	74.26843       	74.594505      	74.23513       	74.59908       	74.41743       	74.73987       	74.17423       	74.60158       	74.54543       	74.421196      	74.530815      	74.500145      	74.50868       	74.43572       	74.616         	74.46166       	74.560425      	74.2991        	74.594124      	74.54528       	74.60102       	74.31091       	74.39397       	74.3965        	75.16742       	74.26497       	74.59007       	74.453285      	74.17772       	74.89638       	74.2845        	74.68943       	74.347664      	74.52403       	74.44862       	74.85093       	74.36815       	74.61333       	74.5826        	74.28873       	74.80265       	74.36629       	74.65712       	74.44731       	74.5107        	74.36134       	74.37185       	74.84406       	74.17317       	74.74466       	74.60609       	74.28191       	74.562164      	74.40537       	74.71655       	74.23796       	74.56896       	74.29412       	74.6023        	74.57194       	74.89333       	74.618645      	74.89806       	
74.55671       	74.95923       	74.29278       	74.65549       	74.30154       	73.74269       	76.6973        	76.48695       	74.989136      	75.088455      	74.00199       	75.981636      	74.69013       	74.21355       	74.12865       	74.506546      	74.084595      	73.844955      	74.12635       	74.50906       	73.944664      	74.19256       	72.60774       	74.48088       	74.19429       	74.91457       	74.410095      	74.32781       	74.30782       	74.388         	74.71704       	74.52613       	74.44436       	74.59203       	74.223976      	74.74372       	74.47024       	74.74046       	74.20724       	74.45403       	74.43064       	74.84085       	74.481224      	74.20481       	74.429726      	74.48719       	74.602135      	74.24482       	74.92395       	74.16981       	74.51222       	74.58785       	74.69577       	74.40965       	74.54038       	74.503815      	74.498726      	74.30895       	74.54606       	74.621666      	74.72921       	74.35079       	74.46973       	74.49678       	74.41858       	74.55963       	74.54255       	74.53654       	74.58012       	74.04988       	74.72679       	74.379234      	74.78506       	74.76974       	74.38924       	74.804634      	74.561966      	74.68309       	74.16578       	74.58933       	74.47164       	74.40441       	74.56587       	74.46462       	74.41949       	74.76381       	74.50244       	74.26763       	74.69775       	74.604385      	73.806         	75.120766      	74.573524      	74.57647       	74.40612       	74.22727       	74.42046       	74.441315      	74.45314       	74.55129       	
74.414345      	74.011055      	74.8268        	74.21838       	74.63687       	73.95594       	73.92215       	76.18315       	75.14199       	76.13313       	75.474915      	74.831764      	74.66032       	74.56069       	73.94565       	73.59923       	73.70268       	73.84877       	73.5348        	74.298904      	74.712234      	74.20798       	74.576004      	74.06955       	74.70998       	74.54038       	75.02807       	74.26748       	74.89581       	74.347725      	74.04765       	75.14259       	74.30181       	74.50376       	74.33261       	74.69681       	74.47581       	74.73456       	74.4962        	74.46937       	74.34342       	74.613235      	74.41019       	74.616776      	74.42903       	74.39377       	74.41403       	74.46517       	74.588844      	74.49172       	74.36685       	74.76657       	74.50257       	74.24802       	74.87041       	74.337685      	74.39456       	74.56503       	74.70155       	74.257866      	74.54173       	74.66736       	74.49026       	74.18887       	74.75277       	74.5472        	74.544014      	74.36399       	74.5597        	74.51253       	74.53116       	74.30959       	74.69337       	74.88499       	74.30174       	74.165054      	75.01393       	74.5209        	73.74296       	75.50752       	74.28957       	74.5307        	74.54227       	74.48387       	74.41972       	74.38261       	74.550896      	74.5347        	74.64308       	74.09927       	74.805855      	74.64773       	74.41037       	74.36409       	74.5392        	74.379295      	74.3683        	74.27834       	74.729515      	74.578186      	
74.43698       	74.51615       	74.45922       	74.455215      	74.595894      	74.29917       	73.88978       	74.123024      	76.11034       	75.429         	75.00166       	74.86654       	74.57083       	74.708664      	72.50846       	74.43947       	74.712395      	74.18278       	74.52842       	74.712166      	74.57616       	74.45285       	74.11616       	74.74635       	74.51938       	74.775375      	74.489944      	74.21869       	74.78484       	74.35878       	74.28065       	74.81682       	74.06711       	74.78675       	74.35183       	74.80287       	74.417244      	74.551414      	74.563484      	74.49924       	74.60797       	74.51194       	74.55233       	74.3939        	74.28395       	74.52453       	74.49659       	74.3777        	74.633026      	74.22501       	74.71719       	74.43043       	74.37907       	74.5239        	74.56097       	74.47963       	74.50931       	74.362564      	74.52053       	74.54606       	74.40111       	74.371666      	74.347855      	74.79724       	74.39084       	74.47926       	74.59904       	74.564606      	74.371666      	74.70141       	74.383156      	74.54022       	74.72278       	74.68883       	74.55797       	74.44426       	74.7215        	74.57379       	74.22651       	74.86943       	74.44804       	74.455345      	74.44389       	74.55309       	74.517166      	73.774506      	74.77768       	74.67465       	74.50704       	74.317825      	74.60915       	74.383995      	74.60426       	74.393654      	74.39815       	74.32671       	74.55228       	74.53606       	74.673325      	74.54862       	
74.44246       	74.54918       	74.5175        	74.719765      	74.076546      	74.98083       	74.44682       	74.40472       	74.49261       	74.38368       	74.76294       	74.77281       	74.5855        	73.966934      	74.610634      	74.63155       	74.753265      	74.63152       	74.49293       	74.38301       	74.56137       	74.50297       	74.35453       	74.440834      	74.50173       	74.289505      	74.85529       	74.21493       	74.649376      	74.2658        	74.37442       	74.81977       	74.69161       	74.38798       	74.513565      	74.35049       	74.44577       	74.394104      	74.766335      	74.44776       	74.41389       	74.596565      	74.329765      	74.36534       	74.9685        	74.35712       	74.53091       	74.15048       	74.236694      	74.95026       	74.66577       	74.16211       	74.74054       	74.49018       	74.075584      	75.00053       	74.51758       	74.45382       	74.285835      	74.54655       	74.553375      	74.49672       	74.49015       	74.52351       	74.41108       	74.43174       	74.713974      	74.2648        	74.58179       	74.1898        	74.7165        	74.62562       	74.412125      	74.69428       	74.66058       	74.48914       	74.41853       	74.732796      	74.16984       	74.50518       	74.871185      	74.428604      	74.36859       	74.41189       	74.317604      	74.62843       	74.54943       	74.493095      	74.46116       	74.73956       	74.24581       	74.42173       	74.612175      	74.33907       	74.56836       	74.41812       	74.26173       	74.59173       	74.83095       	74.86498       	
74.52055       	74.35681       	74.43742       	74.85816       	74.338425      	74.491615      	74.630684      	74.559685      	74.52499       	74.51168       	74.28289       	74.57318       	74.93966       	74.40254       	74.51571       	74.30053       	74.084694      	74.80223       	74.775894      	74.65519       	74.13777       	74.55845       	74.66397       	74.125206      	74.64452       	74.599525      	74.54832       	74.37699       	74.57697       	74.62278       	74.59864       	74.49094       	74.206665      	74.630745      	74.510826      	74.38322       	74.53645       	74.56361       	74.77877       	74.33405       	74.58891       	74.19927       	74.6505        	74.73988       	74.219604      	74.24683       	74.78042       	74.47585       	74.3436        	74.57212       	74.567276      	74.5254        	74.48678       	74.24986       	74.59245       	74.26818       	74.89755       	74.14082       	74.906456      	74.5571        	74.43552       	74.40023       	74.73672       	74.55613       	74.40569       	74.69664       	74.35984       	74.466515      	74.53435       	74.381584      	74.60754       	74.365395      	74.81751       	74.50994       	74.53536       	74.3836        	74.58396       	74.48389       	74.44124       	74.56399       	75.2602        	73.96611       	74.38233       	74.617966      	74.67178       	74.330696      	74.36702       	74.718254      	74.36829       	74.49431       	74.62819       	74.390945      	74.74856       	73.92702       	74.76071       	74.1164        	75.14632       	74.28282       	74.56539       	74.45006       	
74.770966      	74.6487        	74.54516       	74.23023       	74.46486       	74.596214      	74.56789       	74.563416      	74.55668       	74.133194      	75.15725       	74.558266      	74.42379       	74.711525      	74.01538       	74.5938        	74.65615       	74.35125       	74.16467       	75.30144       	74.06295       	74.73752       	74.6366        	74.34088       	74.55555       	74.54078       	74.0318        	74.63014       	74.69818       	74.64138       	74.570915      	74.139336      	74.52188       	74.85013       	74.46628       	74.46252       	74.378395      	74.60095       	74.64057       	74.36806       	74.74193       	74.58092       	74.37808       	74.31479       	74.82955       	74.45747       	74.227196      	74.53979       	74.3711        	74.614716      	74.73863       	74.30965       	74.570335      	74.29593       	74.53776       	74.60571       	74.270325      	74.41668       	74.8654        	74.35223       	74.329956      	74.893166      	74.3837        	74.52934       	74.57878       	74.387886      	74.695854      	74.285995      	74.498         	74.46991       	74.48559       	74.50566       	74.714294      	74.215034      	74.769844      	74.78009       	74.201775      	74.65002       	74.46374       	74.225105      	75.05095       	74.43142       	74.58778       	74.34192       	74.561325      	74.12579       	74.819046      	74.36294       	74.515205      	74.72539       	74.29964       	74.51827       	74.537834      	73.79573       	75.14129       	74.60863       	74.22817       	74.02519       	74.85831       	74.53009       	
74.53263       	74.55665       	74.68566       	73.98872       	74.773415      	74.46798       	74.64278       	74.33066       	74.67832       	74.26935       	74.725716      	74.826935      	74.54414       	74.29441       	74.438774      	74.67555       	74.553345      	74.46628       	74.585495      	74.7506        	74.187904      	74.72694       	74.43593       	74.44446       	74.61436       	74.23394       	74.69929       	74.45574       	74.52223       	74.50287       	74.51192       	74.443756      	74.522896      	74.57977       	74.54205       	74.40961       	74.68707       	74.422165      	74.560326      	74.55067       	74.4942        	74.502205      	74.49634       	74.78656       	74.16036       	74.525116      	74.29699       	74.30449       	74.293175      	74.67976       	74.4644        	74.536804      	74.60599       	74.196266      	74.70951       	74.7152        	74.15458       	74.71861       	74.64444       	74.40729       	74.413994      	74.67802       	74.492424      	74.607834      	73.92698       	74.74011       	74.56325       	74.40821       	74.37798       	74.17409       	74.85041       	74.42745       	74.35812       	74.77558       	74.43222       	74.9673        	74.44048       	74.59242       	74.69746       	74.636246      	74.40732       	74.41293       	74.720245      	74.34805       	74.528244      	74.53759       	74.3457        	74.49011       	74.456566      	74.502426      	74.79611       	74.220825      	74.50439       	74.409584      	74.61654       	74.47533       	74.2406        	74.807724      	74.7347        	74.86042       	
74.59237       	74.63095       	74.51961       	74.5402        	74.43305       	74.33007       	74.78837       	73.867966      	74.361694      	75.133484      	74.621056      	74.68518       	74.42301       	74.43707       	74.55467       	74.28528       	74.85675       	74.27256       	74.68302       	74.48803       	74.55108       	74.45146       	74.73963       	74.52368       	74.2622        	74.38646       	74.767395      	74.57003       	74.161835      	74.51092       	74.55351       	74.42867       	74.75402       	74.45033       	74.47706       	74.71531       	74.28779       	74.71787       	74.42359       	74.674194      	74.09856       	74.66396       	74.51333       	74.22896       	75.07644       	74.4905        	73.916794      	74.715515      	74.3619        	74.54995       	74.44303       	74.557396      	74.485504      	74.423256      	74.58205       	74.58461       	74.25066       	74.77548       	74.31452       	74.45799       	74.4943        	74.607315      	74.425735      	74.08031       	75.002884      	74.482605      	74.4868        	74.374084      	74.590004      	74.7763        	74.352264      	74.42421       	74.65008       	74.57308       	74.517296      	74.74685       	74.46273       	74.70463       	74.678734      	74.127365      	74.386734      	74.52679       	74.80725       	74.530075      	74.3314        	74.32936       	74.91855       	74.28995       	74.49635       	74.6123        	74.47864       	74.36066       	74.50597       	74.581505      	74.381905      	74.69814       	74.12451       	74.20684       	75.24903       	75.55182       	
74.56996       	74.45605       	74.359985      	74.56802       	74.32195       	74.49723       	74.61504       	74.58693       	74.74756       	74.40697       	74.54434       	74.71953       	74.30306       	74.630104      	74.435715      	74.588295      	74.766235      	74.48134       	74.55136       	74.34576       	74.37828       	74.41844       	74.597         	74.242226      	74.880554      	74.40203       	74.73147       	74.38816       	74.61714       	74.32919       	74.592575      	74.358665      	74.74123       	74.54439       	74.73693       	74.168144      	74.398575      	74.56587       	74.747986      	74.58352       	74.256065      	74.67805       	74.30953       	74.591225      	74.53526       	74.5143        	74.26057       	74.26487       	74.67617       	74.223595      	74.740295      	74.36593       	74.61118       	74.393906      	74.618774      	74.414955      	74.50956       	74.330574      	74.63497       	74.810585      	74.32935       	74.34934       	74.48643       	74.48601       	74.53525       	74.38613       	74.624596      	74.73075       	74.48265       	74.35792       	74.51273       	74.480774      	74.68103       	74.54006       	74.53281       	74.88902       	74.26931       	74.650604      	74.40033       	74.511696      	73.98168       	75.19802       	74.11159       	74.76036       	74.67325       	74.409485      	74.378624      	74.45985       	74.247345      	74.836136      	74.38988       	74.303185      	74.646835      	74.285934      	74.26614       	74.294945      	73.927895      	73.58864       	75.510315      	77.17071       	
74.72918       	74.28025       	74.60614       	74.32092       	74.367386      	74.398346      	74.69386       	74.370125      	74.412605      	74.778435      	74.68622       	74.4605        	74.60653       	74.37574       	74.65916       	74.5096        	74.37768       	74.10622       	75.12463       	74.264435      	74.49876       	74.70927       	74.43195       	74.44899       	74.500595      	74.14952       	74.79827       	74.50824       	74.41552       	74.48096       	74.74355       	74.218185      	74.55537       	74.77638       	74.35445       	74.24297       	74.61043       	74.4919        	74.29692       	74.70613       	74.65253       	74.43117       	74.4635        	74.68153       	74.43719       	74.50962       	74.48667       	74.31689       	74.47565       	74.589745      	74.414444      	74.411125      	74.58533       	74.45349       	74.23576       	74.70323       	74.60425       	74.446304      	74.47649       	74.711266      	74.498375      	74.40318       	74.40659       	74.427605      	74.68468       	74.62829       	74.1376        	74.64452       	74.432076      	74.442924      	74.59358       	74.63778       	74.32193       	74.570724      	74.653275      	74.55412       	74.39374       	74.38791       	74.8129        	74.49731       	74.15445       	74.54086       	74.683044      	74.72851       	74.05485       	74.874016      	74.47683       	74.545265      	74.68729       	74.3405        	74.456665      	74.21793       	74.364494      	74.2688        	73.467316      	76.61195       	77.71179       	76.56905       	76.423874      	75.616066      	
74.50909       	74.67046       	74.863655      	74.30389       	74.34189       	74.523964      	74.61746       	74.48995       	74.36874       	74.492294      	74.929756      	74.58652       	74.670815      	74.50711       	74.480385      	74.66211       	74.261         	74.726036      	74.33929       	74.53537       	74.61528       	74.42722       	74.3451        	74.83845       	74.4222        	74.73892       	74.219315      	74.59738       	74.51629       	74.54694       	74.3255        	74.32669       	74.817535      	74.333786      	74.36333       	74.835495      	74.43278       	74.25422       	74.677895      	74.61102       	74.495125      	74.50541       	74.46788       	74.332825      	74.5754        	74.68158       	74.329956      	74.36781       	74.39252       	74.64811       	74.5139        	74.41753       	74.46745       	74.35536       	74.728905      	74.40939       	74.06181       	75.07879       	74.397285      	74.39893       	74.37214       	74.647064      	74.529976      	74.65098       	74.072334      	74.827446      	74.233116      	74.57792       	74.47028       	74.46821       	74.667625      	74.4486        	74.570854      	74.5175        	74.32932       	74.48799       	74.91639       	74.422844      	74.75169       	74.06807       	74.83416       	74.67999       	74.497185      	74.43432       	74.253395      	74.417274      	74.90513       	74.278786      	74.20971       	74.36956       	74.19964       	77.33319       	75.92032       	75.11873       	74.9421        	75.79568       	76.21816       	75.62115       	74.779305      	74.70958       	
74.37893       	74.73663       	74.23009       	74.254776      	74.7757        	74.47039       	74.47957       	74.64011       	74.513054      	74.49209       	74.38072       	74.58546       	75.09638       	74.25413       	74.41004       	74.675026      	74.367294      	74.65992       	74.40023       	74.63649       	74.58231       	74.447876      	74.58266       	74.27723       	74.8132        	74.34479       	74.477356      	74.563774      	74.44809       	74.62476       	74.654625      	74.408134      	74.52127       	74.7139        	73.99865       	74.67384       	74.63628       	74.371346      	74.482445      	74.761955      	74.37673       	74.362526      	74.60114       	74.5042        	74.48764       	74.70122       	74.542465      	74.37032       	74.371704      	74.51077       	74.461525      	74.15954       	74.51116       	74.24476       	74.80389       	74.28315       	74.502785      	74.63477       	74.46082       	74.629906      	74.233795      	74.63788       	74.58113       	74.31794       	74.53223       	74.52537       	74.33307       	74.53943       	74.72226       	74.362724      	74.42614       	74.43127       	74.614075      	74.56208       	74.43482       	74.46164       	74.419876      	74.4692        	74.68813       	74.50555       	74.56788       	74.584816      	74.36404       	74.120705      	73.83924       	76.59205       	74.09254       	75.77331       	76.2736        	74.886475      	75.75489       	75.34742       	75.46753       	75.07931       	74.44645       	74.46701       	74.17839       	74.49546       	74.75817       	74.58908       	
74.70159       	74.211235      	74.88          	74.366295      	74.639626      	74.25606       	74.58603       	74.62248       	74.378204      	74.70252       	74.27286       	74.64872       	74.57798       	74.1731        	75.103546      	74.27077       	74.46293       	74.47335       	74.676315      	74.29627       	74.7563        	74.56782       	74.28639       	74.76713       	74.54791       	74.33296       	74.514946      	74.417145      	74.68276       	74.34367       	74.37589       	74.6074        	74.4645        	74.590866      	74.33795       	74.604034      	74.63136       	74.58511       	74.45914       	74.23177       	74.77674       	74.34439       	74.322914      	74.809525      	74.312965      	74.500084      	74.730545      	74.40935       	74.34106       	74.37639       	74.50972       	74.38854       	74.342285      	74.69856       	74.57693       	74.30269       	74.21117       	75.026146      	74.382355      	74.455185      	74.14561       	74.635124      	74.64503       	74.14602       	74.64725       	74.72749       	74.42965       	74.5299        	74.529         	74.618416      	74.228424      	74.732254      	74.410576      	74.54276       	74.36777       	74.37499       	74.528595      	74.67787       	74.70374       	73.872444      	75.11961       	74.26676       	73.20868       	77.6884        	76.84331       	75.5678        	75.29492       	74.4024        	75.52319       	74.53254       	74.90321       	74.52149       	74.415855      	74.28396       	74.52078       	74.57499       	74.32811       	74.548065      	74.67058       	74.68203       	
74.484505      	74.4087        	74.71566       	74.11321       	74.5885        	74.83513       	74.12242       	74.15377       	74.9706        	74.55064       	74.61493       	74.67129       	74.57657       	74.687546      	74.34865       	74.44167       	74.68339       	74.33423       	74.28221       	74.81998       	74.57601       	74.15916       	74.52513       	74.591576      	74.61966       	74.40822       	74.6343        	74.391884      	74.56373       	74.38954       	74.81479       	74.183945      	74.27471       	74.83983       	74.52366       	74.37092       	74.14764       	74.89523       	74.55744       	74.59013       	74.41208       	74.52723       	74.42053       	74.62667       	74.29444       	74.77775       	74.64443       	74.16202       	74.45989       	74.36705       	74.60248       	74.53505       	74.440384      	74.33081       	74.48354       	74.60752       	74.4957        	74.399864      	74.51553       	74.535706      	74.63761       	74.260735      	74.54477       	74.33857       	74.60822       	74.33068       	74.58912       	74.57141       	74.48043       	74.59587       	74.42872       	74.46268       	74.43786       	74.49233       	74.379845      	74.47961       	74.2159        	73.283226      	77.0707        	75.97954       	75.980804      	75.686516      	74.707375      	75.12949       	75.82839       	74.9016        	74.31781       	74.66527       	74.59594       	74.18896       	74.78065       	74.48799       	74.54043       	74.67796       	74.34323       	74.53767       	74.36988       	74.381355      	74.924736      	74.65858       	
74.34429       	74.480774      	74.53161       	74.29423       	74.60347       	74.695244      	74.56819       	74.33517       	74.534805      	74.60355       	74.927574      	74.2557        	74.793785      	74.567444      	74.59396       	74.33271       	74.6988        	74.17113       	74.77314       	74.453514      	74.4923        	74.48344       	74.4408        	74.72904       	74.43873       	74.40306       	74.564255      	74.39979       	74.566         	74.42942       	74.62366       	74.64594       	74.30482       	74.338165      	74.66523       	74.408615      	74.59079       	74.179855      	75.00219       	74.23677       	74.90318       	74.38914       	74.42965       	74.64408       	74.36777       	74.66886       	74.419716      	74.39293       	74.447945      	74.47426       	74.494934      	74.40509       	74.423386      	74.45935       	74.50492       	74.47679       	74.61358       	74.3095        	74.575806      	74.59623       	74.334984      	74.32954       	74.53637       	74.47143       	74.49108       	74.63867       	74.37735       	74.39007       	74.57069       	74.44843       	74.51736       	74.548965      	74.107414      	74.65806       	74.266975      	73.52767       	76.11481       	76.727356      	76.00476       	75.0847        	75.097534      	74.953224      	74.70127       	74.58379       	74.29111       	74.602005      	74.50562       	74.505295      	74.44463       	74.51892       	74.65054       	74.53995       	74.42452       	74.472275      	74.6137        	74.48186       	74.54567       	74.38023       	74.58733       	74.589165      	
74.53994       	74.86846       	74.177605      	74.54445       	74.52616       	74.32466       	74.8303        	74.295364      	74.449745      	74.61498       	74.77467       	74.372406      	74.42104       	74.98146       	74.56654       	74.34878       	74.54678       	74.486435      	74.2598        	74.84111       	74.6089        	74.14715       	74.3736        	74.63404       	74.81023       	74.27178       	74.38379       	74.60544       	74.43888       	74.37742       	74.62908       	74.77213       	74.36548       	74.55241       	74.606575      	74.22533       	74.60724       	74.3585        	74.92591       	74.24907       	74.53916       	74.64129       	74.42942       	74.44755       	74.391136      	74.5617        	73.94615       	75.35991       	74.355385      	74.309044      	74.35581       	74.4121        	74.39083       	74.46807       	74.61284       	74.84763       	74.25922       	74.43733       	74.30539       	74.66027       	74.40168       	74.57692       	74.397415      	74.563835      	74.22896       	74.67654       	74.5011        	74.14448       	74.55515       	74.57634       	74.34972       	74.4517        	74.3533        	74.53845       	73.59211       	77.31931       	77.51082       	76.637695      	75.61928       	74.582405      	74.28037       	74.13785       	74.97182       	74.3314        	74.49171       	74.65941       	74.38241       	74.68825       	74.52081       	74.41839       	74.21021       	74.896965      	74.56813       	74.49398       	74.41248       	74.6263        	74.4693        	74.480354      	74.779045      	74.735085      	
74.60885       	74.34115       	74.39026       	74.64057       	74.75916       	74.06108       	74.65219       	74.4953        	74.43532       	74.55044       	74.35968       	74.6474        	74.55794       	74.850685      	74.41369       	74.494736      	74.37338       	74.67288       	74.54615       	74.73459       	74.352165      	74.27342       	74.71812       	74.53278       	74.43685       	74.581024      	74.37027       	74.36609       	74.82249       	74.34438       	74.493706      	74.67173       	74.319466      	74.73669       	74.46726       	74.49181       	74.46143       	74.51215       	74.281685      	74.70681       	74.34923       	74.81661       	74.59855       	74.513954      	74.17414       	74.378555      	74.22889       	75.150764      	74.278656      	74.24898       	74.56965       	74.490105      	74.39956       	74.35638       	74.67783       	74.53889       	74.41736       	74.533394      	74.66435       	74.60506       	74.39842       	74.36101       	74.43568       	74.400055      	74.44429       	74.5147        	74.44243       	74.226715      	74.57287       	74.66249       	74.12064       	74.539986      	74.27063       	74.23939       	75.43223       	77.744446      	76.422195      	75.586975      	75.64582       	74.69173       	74.67654       	74.342766      	74.607254      	74.55356       	74.58104       	74.4422        	74.26416       	74.68179       	74.74334       	74.51071       	74.52818       	74.45096       	74.52504       	74.53947       	74.003334      	74.93976       	74.87629       	74.47722       	74.266266      	74.4445        	
74.36869       	74.58057       	74.52274       	74.2522        	74.5436        	74.63311       	74.331635      	74.64024       	74.464         	74.506424      	74.47502       	74.49159       	73.87028       	75.673996      	74.64297       	74.09868       	74.92024       	74.40043       	74.19828       	74.560104      	74.56591       	74.39462       	74.56565       	74.64791       	74.538376      	74.44029       	74.38683       	74.58593       	74.6487        	74.43963       	74.58933       	74.49264       	74.76727       	74.229744      	74.71715       	74.509735      	74.32738       	74.3864        	74.83681       	74.18781       	74.49824       	74.6357        	74.58697       	74.459435      	74.522545      	74.49811       	74.47385       	74.45984       	74.25736       	74.490295      	74.3384        	74.48474       	74.590775      	74.64797       	74.27494       	74.14137       	75.01214       	74.31851       	74.31512       	74.47842       	74.67175       	74.39916       	74.433         	74.52727       	74.14159       	74.8153        	74.215         	74.86929       	74.493576      	74.36766       	74.17431       	74.67482       	74.24977       	73.97035       	74.494606      	78.214386      	76.10816       	75.990425      	76.12015       	74.7636        	74.75887       	74.12087       	74.89207       	74.20743       	74.47777       	74.60951       	74.71782       	74.35383       	74.60344       	74.52315       	74.33574       	74.78483       	74.27885       	74.549706      	74.63004       	74.43048       	74.661026      	74.711845      	74.25222       	74.977905      	
74.66402       	74.48939       	74.560974      	74.65939       	74.32816       	74.56281       	74.33347       	74.545364      	74.58397       	74.35037       	74.53702       	74.76444       	74.49279       	74.6113        	74.57501       	74.498634      	74.7131        	74.29427       	74.50452       	74.540215      	74.504196      	74.301186      	74.651245      	74.59167       	74.44529       	74.504326      	74.49717       	74.56494       	74.39767       	74.63273       	74.57742       	74.51717       	74.376076      	74.517296      	74.8026        	74.24051       	74.61315       	74.25777       	74.67954       	74.430275      	74.621124      	74.391335      	74.590164      	74.46503       	74.79698       	74.513504      	74.21147       	74.612434      	74.51373       	74.24285       	74.527245      	74.26901       	74.545494      	74.78559       	74.02964       	74.49942       	74.865944      	74.13049       	74.49984       	74.75179       	74.45269       	74.70235       	74.643456      	74.36388       	74.533875      	74.369774      	74.46343       	74.650024      	74.149796      	74.584145      	74.60641       	74.209015      	74.29493       	74.22064       	72.91845       	78.26491       	77.02564       	75.95315       	76.08708       	74.90673       	74.50526       	74.70328       	74.53185       	74.29978       	74.6597        	74.43817       	74.34202       	74.605576      	74.34517       	74.3326        	74.80712       	74.33336       	74.73564       	74.56303       	74.42862       	74.48687       	74.40999       	74.282295      	74.714386      	74.5747        	
74.559715      	74.617645      	74.42821       	74.739876      	74.33171       	74.45911       	74.41384       	74.686745      	74.451805      	74.575645      	74.578575      	74.34899       	74.70259       	74.393814      	74.7493        	74.36655       	74.441025      	74.68211       	74.62371       	74.53724       	74.38497       	74.58693       	74.40471       	74.54484       	74.52561       	74.6503        	74.477554      	74.537766      	74.59272       	74.5711        	74.34195       	74.49579       	74.50058       	74.62227       	74.73755       	74.30435       	74.50637       	74.574936      	74.36323       	74.676674      	74.420525      	74.476776      	74.281204      	74.86961       	74.79724       	74.3871        	74.298965      	74.40548       	74.660355      	74.248665      	74.657906      	74.27926       	74.347115      	74.28051       	74.8248        	74.30145       	74.46792       	74.60049       	74.619156      	74.388596      	74.48143       	74.78845       	74.38609       	74.053665      	74.441284      	74.78928       	74.45597       	74.68057       	74.08162       	74.80387       	74.60799       	74.155235      	74.31457       	74.17501       	73.47893       	78.20434       	76.4804        	75.95155       	75.59959       	75.42256       	74.57997       	74.5449        	74.4629        	74.3191        	74.89449       	74.22526       	74.64216       	74.406105      	74.70376       	74.39478       	74.57727       	74.72437       	74.46843       	74.17316       	74.54248       	74.203606      	74.61051       	74.252075      	74.67437       	74.80785       	
74.60356       	74.56993       	74.4291        	74.50711       	74.48361       	74.3859        	74.51387       	74.37233       	74.44927       	74.540474      	74.62447       	74.67761       	74.58515       	74.47131       	74.6546        	74.50476       	74.51219       	74.505714      	74.59899       	74.26201       	74.57508       	74.41879       	74.507355      	74.480545      	74.68833       	74.33017       	74.48441       	74.58505       	74.73241       	74.42414       	74.50649       	74.453026      	74.32432       	74.60561       	74.567795      	74.565475      	74.659874      	74.34643       	74.15902       	75.01301       	74.531334      	73.87794       	74.583         	74.520096      	74.81176       	74.67771       	74.47186       	74.241234      	74.47996       	74.42369       	74.12884       	74.49896       	74.5772        	74.61582       	74.42137       	74.569176      	74.0968        	74.60091       	74.83602       	74.05257       	74.8991        	74.41106       	74.30342       	74.50697       	74.4981        	74.4034        	74.470856      	74.30911       	74.49833       	74.48294       	74.673485      	74.16782       	74.39428       	74.25204       	73.40018       	77.272804      	76.62228       	76.17003       	75.446396      	76.07018       	74.661354      	74.47365       	74.372574      	74.56268       	74.30214       	74.395676      	74.8613        	74.570076      	74.63794       	74.62712       	74.51232       	74.34836       	74.46634       	74.49331       	74.59506       	74.38994       	74.364395      	74.40918       	74.65918       	74.4755        	
74.23043       	74.2673        	74.55058       	74.52438       	74.140465      	74.73328       	74.24          	74.53585       	74.38701       	74.51285       	74.109535      	74.936646      	74.63184       	74.39969       	74.84438       	74.65447       	74.058174      	74.956116      	74.69688       	73.8555        	74.56957       	74.62564       	74.3575        	74.32319       	74.53534       	74.56642       	74.5578        	74.56897       	74.52979       	74.64205       	74.703415      	74.32115       	74.38723       	74.712166      	74.18323       	74.88564       	74.41893       	74.290115      	74.81115       	74.50573       	74.12267       	74.126175      	74.31983       	74.10283       	76.368095      	76.00221       	75.86306       	75.4674        	74.32285       	73.909454      	73.53304       	72.84411       	72.5332        	74.31946       	74.72243       	74.26474       	74.786896      	74.407295      	74.45439       	74.7755        	74.27521       	74.44401       	74.23222       	74.76235       	74.75929       	74.31157       	74.308624      	74.420456      	74.46173       	74.333916      	74.99087       	74.16307       	74.21166       	74.43267       	74.312004      	73.68277       	78.598564      	76.31031       	76.12133       	75.97138       	74.50327       	74.659546      	74.714584      	74.239365      	74.53524       	74.633446      	74.44751       	74.264984      	74.65955       	74.72543       	74.527626      	74.61201       	74.279305      	74.742355      	74.550964      	74.21645       	74.491974      	74.70508       	74.49853       	74.730736      	
74.18773       	74.410355      	74.24341       	74.4656        	74.399284      	74.47178       	74.71143       	74.28999       	74.36492       	74.29497       	74.211205      	74.42993       	74.46457       	74.900635      	74.97197       	74.38548       	74.85864       	74.23288       	74.384544      	74.399734      	74.58765       	74.33371       	74.197876      	74.7081        	74.36117       	74.34089       	74.57514       	74.55784       	74.55023       	74.04642       	74.675995      	74.266556      	75.04079       	74.07261       	74.844284      	74.56814       	73.73584       	74.120094      	73.79446       	75.92462       	75.097435      	75.60342       	76.32676       	75.67243       	75.12716       	75.54434       	75.249535      	75.04765       	74.81037       	74.02663       	72.9901        	73.19737       	70.6032        	73.03962       	74.37975       	74.21934       	74.751755      	74.53339       	74.24317       	74.75308       	74.52661       	74.330635      	74.87397       	73.94865       	74.34794       	74.628685      	74.407394      	74.92763       	74.17557       	74.18414       	74.8922        	74.2749        	74.30485       	74.241646      	74.133644      	73.75696       	78.89989       	76.48047       	75.65782       	75.531494      	75.305         	74.56615       	74.30095       	74.40327       	74.830925      	74.26953       	74.63221       	74.373184      	74.38036       	74.6262        	74.61943       	74.35576       	74.55711       	74.6055        	74.21224       	74.65729       	74.25735       	74.6598        	74.757065      	74.49522       	
74.46075       	74.389755      	74.86824       	74.21851       	74.86164       	74.30746       	74.6864        	74.5761        	74.28006       	74.74694       	74.19247       	74.55154       	74.45832       	74.79584       	74.188385      	74.873795      	74.574135      	74.34652       	74.37528       	75.20542       	74.487656      	74.500885      	73.85385       	74.958305      	74.62871       	74.50151       	74.01531       	75.0825        	74.01363       	74.29451       	74.74928       	74.072876      	74.58006       	74.07731       	72.877945      	74.92119       	76.042595      	76.51897       	76.64568       	75.862274      	74.97439       	75.08141       	74.97228       	74.75356       	74.82372       	74.02775       	75.00374       	74.93542       	74.75129       	74.14925       	73.51655       	72.67654       	71.24381       	72.476074      	74.11979       	74.24277       	74.35144       	74.4176        	74.81581       	74.45557       	74.2612        	74.677956      	74.5669        	74.04222       	74.42313       	74.60416       	74.73718       	74.76211       	74.04562       	74.23006       	74.67753       	74.29848       	74.78859       	74.21712       	73.95307       	73.6348        	78.11435       	76.0123        	76.1133        	75.59214       	75.79453       	74.653         	74.456474      	74.58426       	74.59543       	74.45857       	74.49509       	74.55527       	74.30432       	74.37093       	74.6659        	74.670906      	74.30131       	74.479675      	74.55747       	74.62766       	74.3304        	74.287834      	74.951485      	74.651344      	
74.21764       	74.5044        	74.35494       	74.62643       	74.54908       	74.28838       	74.45455       	74.47748       	74.77915       	74.279106      	74.44526       	74.74288       	74.26879       	74.816864      	74.46717       	74.45317       	74.62942       	74.64258       	74.36846       	74.827194      	74.703354      	74.3827        	74.178795      	74.52551       	74.19709       	74.84408       	74.1763        	74.34949       	74.455025      	74.35033       	74.226585      	73.98911       	75.09386       	76.0829        	75.910416      	75.378845      	75.59401       	75.174164      	75.16411       	74.37857       	74.82673       	74.972115      	74.06147       	74.78464       	73.95857       	75.02817       	74.54846       	74.3271        	75.08953       	74.065025      	73.65427       	73.21709       	71.69004       	72.31747       	73.73001       	74.50685       	74.67281       	74.34679       	74.61654       	74.55043       	74.41251       	74.62303       	74.235275      	74.494194      	74.4889        	74.39116       	74.890175      	74.57846       	74.23291       	74.14646       	74.62404       	74.21502       	74.58596       	74.204834      	74.355225      	74.27819       	74.7914        	77.60074       	76.345436      	75.6159        	75.861496      	74.655266      	74.78154       	74.27555       	74.54465       	74.6875        	74.39342       	74.25882       	74.69432       	74.45124       	74.587296      	74.33165       	74.744835      	74.47134       	74.64898       	74.44273       	74.20242       	75.10483       	74.92578       	74.657684      	
74.099686      	73.51283       	75.016205      	74.62786       	74.26744       	74.615486      	74.57358       	74.57398       	74.64934       	74.383255      	74.40312       	74.47917       	74.31584       	74.42757       	74.194084      	74.50697       	75.064354      	75.01386       	74.02205       	74.46467       	74.39676       	74.72145       	73.93221       	74.72426       	74.15104       	74.21672       	74.15169       	74.09288       	76.65699       	76.33162       	75.515915      	74.130486      	76.72288       	74.88373       	75.22663       	74.11898       	74.81006       	74.475         	74.59433       	74.53295       	74.48174       	74.619576      	74.2541        	74.67598       	74.585556      	74.209045      	74.80839       	74.77883       	74.160614      	74.72221       	73.9161        	73.08546       	72.4048        	71.67938       	72.576035      	74.76637       	74.475204      	74.34409       	74.7241        	74.17214       	74.4327        	74.49312       	74.47224       	74.30571       	74.54413       	74.44747       	74.59963       	74.248245      	74.661736      	74.369804      	74.63156       	74.65563       	74.17453       	74.35727       	74.24296       	73.86879       	74.507385      	77.8026        	76.36645       	76.24211       	75.63375       	74.72102       	74.57859       	74.596016      	74.3178        	74.5558        	74.762314      	74.45202       	74.58702       	74.31479       	74.38254       	74.63985       	74.52248       	74.463486      	74.46173       	74.74556       	74.277885      	74.637375      	74.51161       	74.39539       	
74.480225      	74.49129       	74.51504       	74.66222       	74.267876      	74.21407       	74.848         	74.512314      	74.46074       	74.40752       	74.674416      	74.47499       	74.211845      	74.39343       	74.939545      	74.357086      	74.02197       	75.22496       	74.45607       	74.02049       	74.47011       	74.6199        	73.52352       	74.29569       	76.514725      	74.54466       	76.17134       	75.46067       	75.77281       	74.31729       	74.87423       	74.679955      	74.77613       	74.5696        	74.63327       	74.013504      	74.76089       	74.4585        	74.519196      	74.54474       	74.506134      	74.63246       	74.3394        	74.66605       	74.624886      	74.52705       	74.73259       	74.945274      	73.69111       	74.66927       	74.58349       	72.483444      	72.05894       	73.02646       	72.69069       	74.442444      	74.45528       	74.64645       	74.411385      	75.028725      	74.42452       	73.83097       	74.47698       	74.72105       	74.57265       	74.362305      	74.7503        	74.542786      	74.14106       	74.212425      	74.42992       	74.865486      	74.629135      	74.00392       	74.61451       	74.040695      	73.4563        	78.69583       	75.91426       	75.59068       	76.27894       	75.20376       	74.934975      	74.15367       	74.18493       	74.48735       	74.52828       	74.41343       	74.39165       	74.62995       	74.480934      	73.92309       	74.93154       	74.58864       	74.652794      	74.5377        	74.53435       	74.68298       	74.6381        	74.603264      	
74.84545       	74.42334       	74.1482        	74.17168       	74.516846      	75.374535      	73.583084      	74.56937       	74.772514      	73.97805       	74.50927       	74.486145      	74.525276      	74.68247       	74.90122       	73.71639       	74.63993       	74.87483       	74.014465      	73.75304       	76.02339       	76.371475      	76.58289       	75.65777       	75.64722       	74.74017       	74.526794      	75.206924      	74.21813       	75.00144       	74.196724      	74.12823       	74.37354       	74.94811       	74.385445      	74.61641       	74.534004      	74.00478       	74.50746       	75.20137       	74.85724       	74.424995      	74.47668       	73.87294       	74.44529       	75.19017       	74.71755       	73.97395       	74.20879       	75.02604       	74.35995       	73.44801       	73.09801       	71.467026      	72.12789       	74.30641       	74.78097       	74.44841       	74.30838       	74.69855       	73.97388       	74.53439       	74.68029       	74.44696       	74.56049       	74.29305       	74.18646       	75.106026      	74.06697       	74.35871       	74.74044       	74.127075      	74.47554       	74.29196       	74.77571       	74.1775        	73.39321       	77.59093       	76.83745       	75.98378       	75.23891       	75.64731       	75.311386      	73.95876       	74.420235      	74.63907       	74.19794       	74.541306      	74.46077       	74.71453       	74.56718       	74.39286       	74.51784       	74.49926       	74.26524       	74.53828       	74.29769       	74.44607       	74.4557        	74.43965       	
74.38965       	74.40545       	74.915436      	74.162315      	74.53457       	74.95957       	74.23223       	74.40721       	74.46081       	74.38243       	74.07833       	74.75076       	74.2691        	74.35318       	74.15361       	73.90571       	75.560165      	78.109665      	75.73518       	74.825165      	75.2922        	74.964615      	74.99517       	75.01727       	74.192856      	74.30543       	74.99507       	74.08715       	74.72522       	74.471855      	74.10747       	74.469734      	74.18274       	74.369194      	74.714066      	74.560776      	74.83969       	74.30394       	74.49115       	74.6917        	74.24126       	75.01217       	74.295044      	74.54515       	74.62113       	74.26866       	74.51391       	74.48286       	74.64234       	74.692825      	74.722336      	73.35043       	72.903824      	72.211876      	72.06746       	73.82223       	74.348434      	74.70506       	74.35658       	74.66808       	74.53673       	74.511         	74.2464        	74.56275       	74.70644       	74.24553       	74.607185      	74.488045      	74.37          	74.57072       	74.71271       	74.59563       	74.42366       	74.044945      	74.1465        	74.759315      	74.01376       	74.860115      	77.62084       	76.13085       	75.53729       	75.68659       	74.85454       	74.07216       	74.8173        	74.36744       	74.91209       	74.19677       	74.49394       	74.68972       	74.36895       	74.65582       	74.36245       	74.6341        	74.51044       	74.48673       	74.48632       	74.5653        	74.484116      	74.62764       	
74.99366       	74.43537       	74.82089       	74.18911       	74.76986       	74.32365       	74.3469        	74.87431       	74.15354       	74.38656       	74.28304       	74.97438       	74.040375      	73.64811       	73.4467        	78.01284       	77.37893       	76.761116      	75.568634      	74.403595      	74.07967       	74.70638       	74.11539       	74.67895       	74.62054       	74.15242       	74.69092       	74.66861       	74.363525      	74.61357       	74.477325      	74.58856       	74.6538        	74.5609        	74.410576      	74.58217       	74.67086       	74.31952       	74.43569       	74.48847       	74.734985      	74.43115       	74.352425      	74.61927       	74.4123        	74.576096      	74.37639       	74.724205      	74.252045      	74.98079       	74.25711       	74.08735       	72.655266      	72.39703       	72.04394       	73.322266      	74.61488       	74.49572       	74.03652       	75.32663       	74.008896      	73.8722        	74.6901        	74.7375        	73.89859       	74.61814       	74.223015      	74.80686       	74.66993       	74.097404      	74.39431       	74.79452       	74.107475      	74.21868       	74.467636      	74.690475      	73.660706      	74.65414       	77.68405       	76.47512       	75.46802       	75.703445      	75.01778       	74.27639       	74.57432       	74.5354        	74.72869       	74.69164       	74.287155      	74.62917       	74.58898       	74.40911       	74.41953       	74.502945      	74.54983       	74.52774       	74.58601       	74.49801       	74.49284       	74.641136      	
74.605965      	74.82272       	74.77234       	73.917336      	74.69615       	74.48717       	73.76364       	75.23456       	74.20155       	73.81755       	75.38924       	74.054756      	73.904686      	74.03561       	76.43372       	77.87119       	76.33258       	75.85764       	75.13508       	73.884514      	74.6684        	74.39557       	74.32677       	74.53355       	74.64249       	74.57265       	74.297         	74.66182       	74.503395      	74.41145       	74.59148       	74.35614       	74.731125      	74.32101       	74.31333       	75.11015       	74.165726      	74.54384       	74.770134      	74.58253       	74.48284       	74.28617       	74.37          	74.3453        	74.79255       	74.20679       	74.610146      	74.590744      	74.54825       	74.5731        	74.81279       	74.15645       	72.994286      	72.06175       	72.15972       	73.62653       	74.328384      	74.29804       	74.34593       	74.22403       	74.32506       	75.13016       	74.29005       	73.73596       	75.093666      	74.479385      	74.26552       	74.58108       	74.46755       	74.287994      	74.71226       	74.79732       	74.40395       	74.374016      	74.43456       	74.06452       	73.94788       	73.470375      	78.599915      	75.89565       	75.69931       	75.814445      	75.44094       	74.754486      	74.408455      	74.61707       	74.64662       	74.19737       	74.41099       	74.66813       	74.3568        	74.4298        	74.743256      	74.56891       	74.21781       	74.34447       	74.403015      	74.37337       	74.50965       	74.52974       	
74.55126       	74.41753       	74.53572       	74.442894      	74.699356      	74.41237       	74.53378       	74.61041       	74.15917       	75.03888       	74.415535      	73.742455      	74.29719       	73.31722       	78.00224       	76.96933       	75.13365       	75.846275      	75.83309       	74.57739       	74.36464       	74.32525       	74.6981        	74.43086       	74.42942       	74.48275       	74.425         	74.66164       	74.106766      	74.970024      	74.54587       	74.498634      	74.60845       	74.396194      	74.57704       	74.74113       	74.159355      	74.37676       	74.71033       	74.349205      	74.51156       	74.53137       	74.6061        	74.218544      	74.92604       	74.42002       	74.528076      	74.38215       	74.624275      	74.55249       	74.65617       	73.97035       	73.15645       	73.00146       	72.02859       	72.59316       	74.85822       	74.14074       	74.73262       	74.574875      	74.275         	74.01932       	74.32079       	74.44258       	74.80632       	74.2812        	74.81733       	74.60835       	74.31005       	74.715965      	74.632385      	74.34023       	74.01472       	74.470825      	74.72048       	74.599495      	73.50691       	74.28055       	75.03166       	77.35644       	76.22883       	76.110054      	75.66525       	74.550705      	74.3822        	74.54208       	74.50113       	74.611916      	74.58024       	74.281265      	74.668755      	74.60139       	74.57562       	74.30013       	74.55876       	74.46123       	74.652824      	74.47448       	74.51335       	74.54411       	
74.79128       	74.235466      	75.19653       	74.70672       	74.22843       	74.596565      	74.28796       	74.311356      	74.77875       	73.985825      	74.38869       	74.72426       	74.10801       	73.87753       	74.67463       	78.072716      	76.597206      	75.667854      	75.46923       	74.78494       	74.467636      	74.42302       	74.64616       	74.40065       	74.59115       	74.4015        	74.49693       	74.68442       	74.18579       	74.509674      	74.80018       	74.24136       	74.4947        	75.321945      	74.523735      	73.98194       	74.39906       	74.6325        	74.507866      	74.61431       	74.43036       	74.507774      	74.91435       	74.20695       	74.96713       	74.200386      	74.10064       	75.2018        	74.608665      	74.18433       	74.2245        	74.40943       	73.30281       	72.858345      	72.2414        	71.958435      	74.53303       	74.07349       	74.64067       	74.36324       	74.81496       	74.41801       	74.49182       	74.26901       	74.6179        	74.34253       	74.457726      	74.54003       	74.51853       	74.42851       	74.70855       	74.18288       	74.53299       	74.60111       	74.24488       	74.22797       	74.5591        	74.251884      	74.30882       	78.17305       	76.50045       	75.805405      	75.42355       	74.7258        	74.5607        	74.336784      	74.508156      	74.62398       	74.42485       	74.55149       	74.49224       	74.60278       	74.64634       	74.4869        	74.462105      	74.72134       	74.657814      	74.52055       	74.24985       	74.45861       	
74.772354      	73.92693       	74.37055       	74.43224       	74.783646      	74.12877       	74.3027        	74.58606       	74.58496       	74.79568       	73.554214      	74.91437       	74.51625       	73.82829       	73.62788       	79.04138       	75.92992       	75.71259       	75.816765      	75.29096       	74.72879       	74.08669       	74.45924       	74.38776       	74.5428        	74.69502       	74.31526       	74.553856      	74.474655      	74.3643        	74.66181       	74.59781       	74.42943       	74.489655      	74.3849        	74.83659       	74.34941       	74.44979       	74.674675      	74.44281       	74.39231       	74.82774       	74.313446      	74.454285      	74.53243       	74.43075       	74.4948        	74.50722       	74.42597       	74.85443       	74.50507       	74.75102       	73.56344       	72.90192       	71.98639       	71.933876      	73.990295      	74.67224       	74.111786      	74.38639       	74.84435       	74.22889       	74.46859       	74.73295       	74.6286        	73.91529       	74.38513       	74.394295      	74.98873       	74.40129       	74.39998       	74.72819       	74.27048       	74.47301       	74.179         	74.27928       	74.52233       	74.30802       	74.172325      	78.48482       	76.18204       	75.96701       	75.872215      	74.81578       	74.65866       	73.95216       	74.704765      	74.4183        	74.43349       	74.47841       	74.849         	74.50048       	74.22668       	75.10033       	73.98506       	74.41734       	74.511894      	74.40396       	74.37192       	74.90207       	
74.52301       	74.562515      	74.40267       	74.51063       	73.818275      	75.05052       	74.329056      	74.73903       	74.07054       	74.746994      	74.48174       	74.28713       	74.79932       	73.84891       	73.59037       	76.6475        	76.90145       	76.04177       	75.980774      	75.635605      	74.21741       	74.73462       	74.29835       	74.41534       	74.70591       	74.54903       	74.53517       	74.43288       	74.401566      	74.567795      	74.52424       	74.83538       	74.27749       	74.51646       	74.62262       	74.26243       	74.821075      	74.34076       	74.48504       	74.79913       	74.31114       	74.4785        	74.88601       	74.55781       	74.621704      	74.15311       	74.59763       	74.836         	74.12447       	74.69722       	74.891754      	74.41146       	73.809135      	73.08043       	72.47979       	71.262146      	73.18465       	74.84406       	74.69712       	74.24864       	74.52741       	74.29373       	75.033394      	74.36687       	74.14481       	74.58432       	74.74353       	74.14782       	74.074684      	74.98542       	74.36708       	74.35812       	74.482666      	74.49274       	74.35796       	74.52263       	74.34249       	74.285835      	73.609695      	78.100334      	76.61672       	75.9164        	75.64367       	74.72224       	74.83253       	74.40881       	74.462296      	74.43086       	74.50883       	74.720924      	74.365585      	74.20975       	74.96338       	74.52018       	74.12083       	74.50092       	74.48326       	74.35613       	74.59383       	74.71783       	
74.194664      	74.50733       	74.28912       	74.71789       	74.08973       	74.596146      	74.589485      	74.37185       	74.5646        	73.82121       	75.02493       	74.33998       	74.02198       	74.22604       	74.43413       	74.89253       	77.95202       	75.99703       	75.63182       	75.647125      	74.74836       	74.47587       	74.194496      	74.44999       	74.79607       	74.362236      	74.46684       	74.66483       	74.625595      	74.35719       	74.65808       	74.43524       	74.43678       	74.370316      	74.76431       	74.38702       	74.51918       	74.2658        	74.65381       	74.56762       	74.30162       	74.65051       	74.40374       	74.40546       	74.643234      	74.58196       	74.45204       	74.4991        	74.53085       	74.65498       	74.343155      	75.042915      	74.24566       	73.21936       	72.06468       	72.35959       	72.896416      	74.328865      	74.23109       	74.250565      	75.26145       	74.30615       	74.62393       	74.41103       	73.94128       	75.099045      	73.77727       	74.53699       	74.761566      	74.92727       	74.31363       	74.09756       	74.818146      	73.76358       	74.37903       	74.45605       	74.72494       	73.80046       	73.76042       	76.78461       	77.02207       	76.09484       	75.61967       	75.04857       	75.0747        	74.22092       	74.49081       	74.70465       	74.22214       	74.522514      	74.49221       	74.52777       	74.617165      	74.30093       	74.48345       	74.74869       	74.46662       	74.44259       	74.53316       	74.41          	
74.48287       	74.59111       	74.36299       	74.703285      	75.163925      	74.26362       	73.599785      	75.037445      	74.11559       	74.06138       	74.378876      	74.53361       	74.42002       	74.259865      	74.175         	73.82362       	78.471504      	75.870224      	75.97715       	76.27693       	74.55475       	74.64671       	74.30919       	74.74209       	74.44005       	74.43804       	74.603096      	74.384735      	74.711525      	74.16914       	74.6018        	74.43143       	74.65458       	74.60983       	74.24334       	74.67734       	74.52062       	74.57161       	74.303696      	74.77485       	74.39037       	74.62446       	74.68017       	74.08608       	74.70007       	74.56604       	74.57203       	74.376526      	74.46981       	74.67464       	74.08322       	75.47678       	74.3233        	73.49224       	73.140755      	71.33457       	72.43457       	74.50821       	73.94836       	74.88071       	74.14519       	74.25816       	74.57702       	74.395256      	74.53147       	74.62217       	74.3056        	74.60054       	74.82067       	74.17692       	74.92512       	73.804855      	74.786156      	74.04106       	74.79931       	74.392876      	74.2398        	74.713264      	73.53024       	76.63954       	76.308105      	76.45536       	75.67148       	76.06365       	74.413704      	74.57344       	74.54009       	74.39374       	74.31652       	74.6514        	74.48051       	74.562546      	74.45994       	74.647896      	74.41516       	74.26637       	74.40454       	74.71872       	74.65496       	74.74272       	
74.41371       	74.65378       	74.54908       	74.46247       	74.36069       	74.33538       	74.70291       	74.45553       	74.40183       	74.57464       	74.50553       	74.24425       	74.75085       	74.21735       	74.60695       	73.39713       	77.51962       	76.83709       	76.30711       	75.60016       	74.61449       	74.67923       	74.48678       	74.53313       	74.77292       	74.42566       	74.21241       	74.61412       	73.93036       	75.1791        	74.77265       	74.30533       	74.67888       	74.31628       	74.519104      	74.572464      	74.52321       	74.61269       	74.62118       	74.31424       	74.667         	74.34564       	74.68182       	73.81154       	75.284775      	74.287094      	74.353325      	74.67063       	74.62303       	74.42222       	74.15794       	74.918625      	74.6553        	74.21257       	73.01108       	72.29612       	71.15969       	74.21983       	74.644684      	74.56514       	74.10753       	74.23884       	74.51795       	74.457596      	74.403824      	74.62962       	74.57222       	74.78323       	73.943504      	74.98429       	74.038246      	74.48724       	74.29723       	74.26786       	74.52575       	74.636795      	74.131256      	73.97753       	73.96682       	75.68537       	76.9689        	76.66858       	76.23014       	75.53022       	74.233215      	74.90967       	74.88869       	73.97236       	74.66195       	74.4619        	74.55584       	74.22127       	74.655914      	74.48064       	74.460266      	74.52405       	74.51596       	74.5695        	74.42103       	74.39428       	
74.39601       	74.38238       	74.34801       	74.64159       	74.50227       	74.92093       	74.35636       	74.462776      	73.82388       	74.68771       	74.99296       	74.05198       	74.53197       	74.57232       	74.32397       	73.091255      	78.11627       	76.32733       	75.32363       	75.70734       	75.772095      	74.89233       	74.176765      	74.45622       	74.454185      	74.69662       	74.26061       	74.58656       	74.58601       	74.461555      	74.4366        	74.55532       	74.571         	74.335724      	74.4888        	74.61348       	74.53734       	74.35649       	74.762436      	74.40208       	74.376114      	74.66032       	74.66148       	74.37086       	74.19837       	74.7836        	74.48721       	74.45388       	74.47969       	74.658005      	74.236855      	74.66269       	74.81615       	74.25648       	72.1493        	73.474434      	71.65849       	72.79136       	74.07918       	74.66456       	74.65628       	74.39147       	74.432915      	74.455826      	74.56221       	74.514206      	74.44557       	74.39934       	74.623764      	74.59149       	74.35245       	74.550575      	74.20194       	74.417534      	74.5925        	74.23853       	74.67365       	74.449165      	73.992         	74.114876      	78.74163       	76.092186      	75.38108       	76.19269       	74.547165      	74.54024       	74.04346       	74.91874       	74.37038       	74.48897       	74.902504      	74.65285       	73.935425      	74.57156       	74.37079       	74.482285      	74.1485        	74.325485      	75.08962       	74.46558       	
75.10947       	74.2822        	74.89825       	74.445946      	74.32652       	74.87493       	74.68573       	74.22617       	74.607086      	74.63546       	74.11876       	74.678986      	73.86727       	74.56233       	74.67773       	73.625305      	75.047714      	77.97767       	76.87681       	74.99045       	76.229774      	74.31803       	74.85692       	74.02595       	75.09366       	74.07342       	74.611244      	74.53158       	74.445244      	74.52517       	74.737114      	74.36991       	74.38354       	74.549736      	74.66999       	74.469444      	74.4778        	74.4918        	74.92307       	74.14298       	74.599365      	74.69467       	74.46069       	74.38945       	74.48521       	74.61115       	74.50459       	74.43483       	74.55825       	74.37625       	74.41138       	74.48935       	74.682014      	74.16842       	73.243095      	72.25293       	71.95158       	69.883835      	74.02179       	74.8835        	74.0974        	75.236755      	74.26058       	74.67771       	74.34876       	74.76557       	74.33795       	74.44961       	74.1666        	74.5031        	74.67086       	74.0286        	74.81292       	74.17908       	73.93781       	74.402275      	74.60725       	74.46853       	74.14163       	73.627815      	77.70143       	76.99866       	76.404495      	75.382576      	75.260796      	74.42402       	74.48182       	74.37071       	74.61967       	74.576065      	74.55286       	74.43444       	74.643875      	73.92159       	74.25108       	74.57882       	74.583405      	74.38767       	74.62336       	74.30016       	
74.299484      	74.60831       	74.473         	73.67024       	75.03144       	74.214066      	74.35456       	74.10859       	74.440674      	74.48071       	74.909676      	74.707695      	74.50708       	73.66825       	74.91737       	74.19205       	73.85918       	77.78349       	76.242386      	76.25358       	75.44513       	74.374176      	74.96652       	75.15046       	73.48936       	75.29642       	73.78024       	74.203514      	74.56049       	74.57162       	74.33566       	74.68947       	74.657814      	74.448784      	74.33814       	74.27979       	74.58266       	74.68748       	74.85953       	74.248924      	74.51199       	74.57816       	74.28725       	74.56198       	74.676285      	74.58546       	74.40831       	74.48853       	74.71976       	74.57851       	74.530266      	74.36776       	74.63896       	74.52888       	74.35098       	73.07159       	72.26843       	71.127754      	73.98989       	74.47407       	74.274994      	74.56744       	74.51182       	74.339035      	74.19368       	74.527916      	74.59215       	74.515526      	74.41203       	74.61849       	74.39924       	74.31509       	74.55498       	74.53508       	74.49684       	74.31173       	74.6669        	74.18998       	74.371185      	73.87617       	76.64141       	77.301445      	75.97967       	75.64738       	75.53048       	74.25118       	74.87616       	74.208626      	74.667656      	74.55391       	74.39442       	74.289665      	74.45593       	74.96137       	74.86831       	74.68456       	74.636826      	73.61346       	74.09174       	74.40223       	
74.59584       	74.61283       	74.70343       	73.68593       	74.432175      	75.02311       	74.30315       	74.416885      	74.53713       	74.13273       	74.723236      	73.673195      	74.95184       	74.36941       	74.133804      	73.88577       	73.67997       	78.36769       	76.27286       	76.17763       	75.53223       	75.312325      	74.40563       	74.39146       	74.46333       	74.62376       	74.589264      	74.50865       	74.36712       	74.46671       	74.56532       	74.53373       	74.6508        	74.55558       	74.41156       	74.38055       	74.62717       	74.49204       	74.549805      	74.348495      	74.75255       	74.274475      	74.693825      	74.57505       	74.68781       	74.313484      	74.51981       	74.68682       	74.68095       	74.310104      	74.53945       	74.37391       	74.863884      	74.60965       	73.61385       	73.27959       	72.9828        	71.17361       	73.838234      	74.83789       	74.38587       	74.23272       	74.41075       	74.62577       	74.272316      	74.277954      	74.68575       	74.39204       	74.471825      	74.732796      	74.27139       	74.17473       	75.347824      	74.27854       	74.1164        	74.081604      	74.84072       	74.28913       	74.21338       	73.5683        	75.707115      	77.49693       	75.8812        	75.68117       	76.02155       	74.87102       	74.50484       	74.353096      	75.07527       	74.57982       	74.1269        	74.23919       	74.54395       	74.69483       	74.11053       	73.696144      	74.111374      	73.24996       	73.70561       	73.22363       	
74.92051       	74.00864       	74.49582       	74.80451       	74.08545       	74.75991       	74.59092       	74.326805      	73.96213       	74.30104       	74.997826      	74.43135       	73.943275      	74.55228       	74.40772       	74.686874      	73.22055       	76.27684       	76.935265      	76.039345      	75.94123       	75.40538       	74.752106      	74.39188       	74.583244      	74.32815       	74.43528       	74.51008       	74.533844      	74.63109       	74.46763       	74.48013       	74.372         	74.58314       	74.58648       	74.59007       	74.45976       	74.59316       	74.40267       	74.57708       	74.373116      	74.53775       	74.68123       	74.463486      	74.42745       	74.71399       	74.492386      	74.59882       	74.50391       	74.476494      	74.4692        	74.518555      	74.40165       	74.89746       	74.27866       	73.602646      	71.97665       	72.24792       	72.67666       	74.26948       	74.48171       	74.55642       	74.66893       	74.49409       	74.36888       	74.66933       	74.279396      	74.32395       	74.769775      	74.48565       	74.26988       	74.55488       	74.57454       	74.40707       	74.42561       	74.51564       	74.31041       	74.42251       	74.59219       	74.04039       	73.85843       	78.215836      	75.98738       	76.46942       	75.71745       	75.88169       	74.504486      	74.61234       	74.54646       	74.27531       	74.03247       	73.86328       	74.21251       	74.23386       	74.27812       	73.41737       	73.70166       	73.96059       	73.554474      	72.88215       	
74.38312       	73.914345      	75.513725      	73.97019       	74.11673       	74.77993       	74.60064       	74.91082       	74.08926       	74.05417       	74.55601       	73.90194       	74.49771       	75.26116       	73.29576       	74.541245      	74.55779       	74.300575      	78.32761       	76.40705       	75.5993        	75.756         	74.35683       	74.45998       	74.6137        	74.506676      	74.22205       	74.48381       	74.626335      	74.51844       	74.50664       	74.40644       	74.63892       	74.48258       	74.51723       	74.286896      	74.59074       	74.48537       	74.539536      	74.48638       	74.798355      	74.35559       	74.71336       	74.50857       	74.44642       	74.465225      	74.67897       	74.681755      	74.1742        	74.7318        	74.55075       	74.42565       	74.81722       	74.556755      	74.271225      	73.42955       	72.73364       	71.83377       	71.602135      	74.45804       	74.542366      	74.29851       	74.23727       	74.75619       	74.30888       	74.392075      	74.38411       	74.74899       	74.076324      	74.76602       	74.227974      	74.669716      	74.703064      	74.14588       	74.49521       	74.581856      	74.32175       	74.075676      	74.44734       	74.13756       	73.632195      	78.354996      	76.50184       	76.0157        	75.88639       	75.44279       	74.419426      	74.661446      	74.36659       	73.937874      	73.96712       	73.37656       	74.52067       	74.197266      	74.31688       	73.63165       	74.018196      	72.82484       	72.09834       	72.92408       	
74.44203       	74.56909       	74.442314      	74.20336       	74.63194       	74.65687       	74.44876       	74.49141       	74.34106       	74.36123       	74.64719       	74.33419       	74.7842        	74.333496      	74.005516      	74.53842       	74.10182       	75.39358       	77.68846       	76.33935       	75.15068       	75.20385       	75.658165      	74.499374      	73.94941       	74.0829        	74.79762       	74.48507       	73.86997       	74.743065      	74.537926      	74.33319       	74.7897        	74.73922       	74.261345      	74.22204       	74.57745       	74.96845       	74.403625      	74.683914      	74.32663       	74.68294       	74.27207       	74.06479       	74.66924       	74.57033       	74.0904        	74.60525       	75.25318       	74.038414      	74.44039       	74.39097       	74.090645      	75.2035        	74.382         	73.710045      	72.169716      	72.52109       	72.315834      	74.046104      	74.492134      	74.337906      	74.48277       	74.63664       	74.352295      	74.3994        	74.567314      	74.57246       	74.22996       	75.22779       	74.08948       	74.397896      	74.09357       	74.6785        	74.19913       	74.6466        	74.50224       	74.410614      	74.33321       	74.38102       	73.80608       	76.13926       	77.6174        	74.9718        	74.812454      	74.65199       	75.66515       	74.011116      	74.99541       	74.10011       	73.57105       	73.809204      	74.7415        	73.71849       	74.166176      	74.28539       	72.567924      	73.22311       	71.88995       	71.5312        	
74.37722       	74.424904      	74.70997       	74.46317       	74.53315       	74.978134      	73.89663       	74.90435       	74.1632        	74.87178       	74.316605      	74.35479       	74.69529       	74.06242       	74.18366       	74.43424       	74.45655       	74.03842       	77.96555       	76.26319       	76.34546       	75.61834       	74.995094      	74.47198       	74.66592       	74.25221       	74.51889       	74.6229        	74.61677       	74.3603        	74.41861       	74.62965       	74.649506      	74.589355      	74.38172       	74.539474      	74.610596      	74.162285      	74.81635       	74.44578       	74.66971       	74.446495      	74.47651       	74.40249       	74.690025      	74.39868       	74.684685      	74.41467       	74.29728       	74.67642       	74.652306      	74.401215      	74.7252        	74.30204       	74.60324       	73.95195       	73.03643       	72.14527       	71.78272       	73.16632       	74.29165       	74.51403       	74.308556      	74.40446       	74.4167        	74.14402       	74.65676       	74.53209       	74.482605      	74.56793       	74.36266       	74.53391       	74.55458       	74.25131       	74.39056       	74.76349       	74.3726        	74.62358       	74.1695        	74.249855      	74.224365      	74.509605      	76.426216      	74.62572       	76.38117       	75.623         	75.10774       	75.03849       	74.45796       	73.78683       	74.22938       	73.35786       	74.11856       	73.517044      	74.56631       	72.720406      	72.046135      	74.69508       	75.13849       	74.63265       	
74.737816      	74.534904      	74.56495       	74.35971       	74.67427       	74.5143        	74.488846      	74.29719       	74.63364       	74.78569       	74.14383       	74.60205       	74.355774      	74.46694       	74.284615      	74.35324       	74.57396       	73.276505      	76.90536       	77.03907       	75.71013       	75.562195      	76.051575      	74.72147       	74.521         	74.49322       	74.33915       	74.545784      	74.63316       	74.32269       	74.49963       	74.639824      	74.37227       	74.53127       	74.64758       	74.59162       	74.381096      	74.47316       	74.64942       	74.36868       	74.65297       	74.601234      	74.456245      	74.44338       	74.644325      	74.28824       	74.52368       	74.43601       	74.50593       	74.58129       	74.65461       	74.51311       	74.66303       	74.54894       	74.40304       	74.19617       	73.127525      	72.32934       	72.054726      	71.59292       	74.15095       	75.07876       	73.9902        	74.465576      	74.24934       	74.3699        	74.346085      	74.789856      	74.54833       	74.41541       	74.81162       	73.73162       	75.06611       	73.98647       	74.460655      	74.935135      	74.23934       	74.32466       	74.0271        	75.019775      	74.10026       	74.230705      	74.051216      	75.591736      	76.08206       	75.4875        	74.44963       	75.84096       	74.36064       	73.17949       	74.14142       	73.070755      	74.04284       	74.51423       	74.50083       	74.40585       	74.68936       	74.45039       	74.64747       	75.11326       	
74.63795       	74.49511       	74.483086      	74.98467       	73.901276      	74.61956       	74.41699       	74.50907       	74.364395      	74.67863       	73.845634      	75.10102       	74.69725       	74.20466       	74.44121       	74.61709       	74.28096       	74.35372       	73.88127       	78.06748       	76.470184      	76.283394      	75.73781       	74.56212       	74.64787       	74.36685       	74.61132       	74.43754       	74.40633       	74.625916      	74.500595      	74.62833       	74.49508       	74.622475      	74.275635      	74.34585       	74.54935       	74.48092       	74.51824       	74.4325        	75.070496      	74.18074       	74.52388       	74.23836       	75.00743       	74.26657       	74.31329       	74.5467        	74.94703       	74.19437       	74.82948       	73.945175      	74.93338       	74.65242       	74.50966       	73.93103       	73.47001       	72.73784       	71.806595      	72.79174       	74.28449       	74.63679       	74.471924      	74.294365      	74.53981       	74.83388       	74.29179       	74.70613       	74.52168       	74.4091        	74.60588       	74.22566       	74.48168       	74.44263       	74.69866       	74.5918        	74.37203       	74.37786       	74.62179       	74.4284        	74.321815      	74.25874       	75.27578       	73.88374       	74.54996       	74.54139       	75.274796      	74.339134      	74.66228       	74.53325       	74.05938       	74.56994       	75.035675      	74.23237       	74.238144      	74.40677       	74.25429       	73.93508       	74.79631       	74.83811       	
74.51447       	74.498215      	74.33501       	74.773895      	74.7751        	74.552376      	73.82868       	74.551544      	74.49974       	74.83374       	74.00667       	74.38239       	74.8253        	74.101585      	74.583984      	74.22241       	74.326294      	74.13233       	73.51929       	78.57694       	76.09487       	75.95157       	75.6607        	75.12438       	74.300446      	74.25298       	74.51389       	74.64607       	74.394806      	74.69324       	74.36563       	74.513695      	74.3169        	74.83446       	74.45523       	74.33522       	74.59458       	74.297455      	74.86696       	74.61586       	74.297424      	74.406555      	74.39933       	74.95064       	74.78842       	73.79155       	74.61559       	74.90473       	74.15789       	74.29549       	74.89454       	74.35722       	74.43458       	74.73625       	74.797775      	74.33848       	73.40666       	72.65557       	72.10864       	72.105125      	74.68112       	74.34339       	74.14641       	74.38707       	74.49894       	74.77429       	74.178215      	74.40973       	74.580315      	74.462166      	74.271675      	74.62241       	74.64691       	74.60417       	74.25476       	74.76213       	74.34575       	74.42243       	74.41303       	74.48786       	74.35929       	74.514786      	74.54314       	74.35577       	74.980736      	74.40742       	74.413445      	74.49521       	74.7775        	74.357834      	74.91569       	74.28252       	74.702934      	73.712074      	74.192276      	74.19329       	74.03062       	74.47631       	75.34359       	73.58808       	
74.04644       	74.499275      	74.55112       	74.61627       	74.18346       	74.49366       	74.520454      	74.338554      	74.78186       	73.72561       	74.65165       	74.2264        	74.75273       	74.23679       	74.611244      	74.25248       	74.67547       	74.15774       	73.5695        	77.71011       	76.94343       	76.271545      	75.77903       	74.74383       	75.03703       	73.801254      	74.30371       	74.528175      	74.645226      	74.58884       	74.637375      	74.74162       	74.16678       	74.57348       	73.91159       	74.70181       	74.468506      	74.72493       	74.41088       	74.64499       	74.612656      	74.52761       	74.43725       	74.51476       	74.43935       	74.84614       	74.11545       	74.85637       	74.82386       	73.76148       	74.90667       	74.37285       	74.610275      	74.857155      	74.51675       	74.94584       	74.05967       	72.63266       	71.754715      	71.66855       	73.826965      	74.57042       	74.49909       	74.445854      	74.045044      	74.85748       	74.38115       	74.32401       	74.737015      	74.44416       	74.70973       	74.35521       	74.468895      	74.18797       	74.82121       	74.48985       	74.39986       	74.71426       	74.29105       	74.61261       	74.523254      	74.371056      	74.5726        	74.4986        	74.64754       	74.472885      	74.94583       	74.20015       	74.52896       	74.409294      	74.33389       	74.99899       	74.3952        	74.56103       	74.08114       	74.63047       	73.83473       	75.09299       	75.084076      	74.05559       	
74.70694       	74.517296      	74.42677       	74.31539       	74.767166      	74.38421       	74.74005       	74.51458       	74.548676      	74.362305      	74.39855       	74.33124       	74.51865       	74.50122       	74.376205      	74.93225       	74.18135       	73.964485      	73.563644      	77.838165      	76.45452       	76.09137       	75.277336      	75.859116      	74.32464       	74.519905      	74.450905      	74.31111       	74.59774       	74.555504      	74.21084       	75.0281        	74.31225       	74.55705       	74.54616       	74.301315      	74.919136      	74.32013       	74.67652       	74.39618       	74.402916      	74.66647       	74.4937        	74.48194       	74.65636       	74.30594       	74.47642       	74.855034      	74.580666      	74.25944       	74.78956       	74.750404      	74.4311        	74.3913        	74.78552       	74.37256       	74.02024       	73.507256      	72.88512       	71.70868       	72.56264       	74.99704       	73.930565      	74.75698       	74.27526       	74.28554       	74.44495       	74.56539       	74.46248       	74.5064        	74.500656      	74.204506      	74.80993       	74.52261       	74.59279       	74.46653       	74.62376       	74.22201       	74.57691       	74.672134      	74.49923       	74.29952       	74.574104      	74.504295      	74.63627       	74.23935       	75.13105       	74.46356       	74.50268       	74.289734      	74.45893       	74.77114       	74.56899       	74.60388       	74.61594       	74.08609       	73.37494       	75.34653       	75.725746      	74.7087        	
74.38006       	74.635086      	74.57897       	74.428764      	74.33856       	74.844635      	74.41839       	74.27684       	74.506836      	74.19237       	74.63678       	74.44782       	74.566666      	74.47425       	74.228806      	74.21939       	74.90034       	74.34046       	73.91003       	75.46114       	77.25513       	76.04571       	75.97921       	75.657684      	74.928795      	74.097404      	74.502106      	74.804         	74.18053       	74.56858       	74.45411       	74.661         	74.40153       	74.3595        	74.67724       	74.451614      	74.79033       	74.020546      	74.560555      	74.46167       	74.63537       	74.92739       	74.271194      	74.66853       	74.231415      	74.86838       	74.262276      	74.337135      	74.57238       	74.153244      	74.7547        	74.25797       	74.41658       	74.69006       	74.41519       	73.144646      	74.18476       	73.6231        	73.45675       	72.93911       	72.00595       	74.03644       	74.512505      	74.53688       	74.32638       	74.4953        	74.523506      	74.41049       	74.75329       	74.31481       	74.56378       	74.65329       	74.3561        	74.78458       	74.34116       	73.89106       	75.05031       	74.605835      	74.3645        	73.98093       	74.39103       	74.62518       	74.322         	74.405365      	74.60146       	74.67111       	74.32507       	75.33916       	74.72682       	73.86644       	74.99263       	74.35412       	74.088745      	75.06627       	74.22112       	74.048744      	74.16501       	74.29744       	74.82891       	74.175545      	
74.45116       	74.39118       	74.38289       	74.61857       	74.686356      	74.73483       	74.49334       	74.22646       	74.89421       	74.308495      	74.3555        	74.47149       	74.3923        	74.671         	74.50167       	74.215416      	74.79234       	74.02238       	74.48877       	73.45491       	78.87927       	75.7337        	76.077705      	75.92789       	74.90271       	74.47162       	74.46867       	74.73869       	74.198265      	74.45894       	75.151855      	73.95413       	74.68278       	74.41147       	74.71339       	74.13042       	74.483864      	74.81339       	74.47231       	73.98304       	74.5342        	74.77076       	74.64107       	74.726845      	74.46316       	74.37758       	74.06066       	74.52429       	74.91783       	74.05408       	73.6137        	75.19433       	73.92286       	72.77597       	75.2023        	73.92912       	73.506355      	73.424065      	73.80663       	73.62188       	72.5131        	73.93497       	74.31751       	74.65177       	74.57497       	74.13293       	74.75213       	74.656136      	74.14266       	74.8866        	74.37167       	74.55127       	74.348404      	74.615         	74.64641       	74.24413       	74.398575      	74.603966      	74.54542       	74.52576       	74.387215      	74.75437       	74.4573        	74.40968       	74.67121       	74.43962       	74.49466       	74.764534      	74.42936       	74.39926       	74.977974      	74.26185       	74.41444       	74.75142       	74.48796       	74.04352       	73.914986      	74.60851       	74.97068       	74.487785      	
74.59333       	74.81787       	74.33056       	74.72106       	73.737495      	74.980606      	74.35387       	74.375496      	74.47186       	74.519745      	74.77414       	74.045746      	74.790535      	74.37766       	74.14253       	74.48936       	74.485016      	74.07453       	74.260414      	73.661896      	77.722046      	76.76106       	75.78422       	75.92194       	75.30401       	74.28145       	74.453415      	74.86133       	74.416466      	74.10434       	74.63553       	74.45498       	74.360916      	74.627594      	74.60921       	74.58026       	74.25568       	74.56674       	74.76087       	74.834404      	74.444664      	74.40048       	74.15257       	74.48674       	74.377975      	74.23735       	74.44589       	73.89367       	73.6899        	74.45646       	74.093864      	74.43435       	74.66442       	72.64249       	73.346176      	74.828445      	73.382744      	73.95635       	74.453         	73.54572       	72.70392       	74.59348       	74.14994       	74.6911        	74.46432       	74.190956      	74.72116       	74.13559       	74.55359       	74.482025      	74.50772       	74.38198       	74.412415      	74.436455      	74.6251        	74.40268       	74.4722        	74.54158       	74.81675       	74.41469       	74.48525       	74.44032       	74.51179       	74.454544      	74.49462       	74.59164       	74.29532       	74.798676      	74.37959       	74.7662        	74.49213       	74.32184       	74.60898       	74.412605      	75.36776       	73.89785       	74.1019        	74.413414      	75.15639       	74.989655      	
74.76622       	74.1177        	74.28827       	74.62444       	74.548386      	74.45059       	74.49943       	74.13071       	74.864494      	74.18705       	74.46101       	74.631035      	74.49956       	74.57212       	74.27497       	74.566284      	74.39275       	74.05363       	74.368996      	74.454735      	75.58476       	76.69966       	76.56324       	75.95425       	75.76731       	74.79943       	74.10573       	74.86744       	74.391304      	74.490364      	74.55396       	74.38958       	74.42837       	74.74812       	74.33307       	74.43398       	74.45128       	74.4614        	74.64995       	74.24593       	74.31836       	73.79296       	74.55893       	74.05169       	73.28139       	74.6256        	74.19577       	73.82096       	73.58985       	73.84017       	74.34964       	74.5437        	73.980675      	73.89668       	74.730194      	74.59185       	73.402725      	73.593834      	73.08117       	74.14973       	74.58959       	74.617256      	74.44569       	74.55876       	74.237526      	74.613         	74.5649        	74.669754      	74.3032        	74.46012       	74.32921       	74.38792       	74.272705      	74.67679       	74.63247       	74.76024       	74.61094       	74.5372        	73.75461       	74.64485       	74.67721       	74.02583       	75.083496      	73.8262        	74.635605      	75.036385      	74.116684      	74.500244      	74.444145      	74.53211       	74.41554       	74.311134      	74.61406       	74.39025       	74.61844       	74.577255      	73.53663       	74.89657       	75.01913       	75.49323       	
74.63414       	74.203735      	74.90812       	74.610176      	74.37808       	74.11198       	74.945305      	74.31985       	74.71794       	74.07825       	74.40331       	74.898384      	74.273094      	74.551125      	74.59934       	74.214554      	74.34079       	74.43588       	74.26357       	74.46588       	74.45491       	77.413185      	76.81992       	75.97989       	75.570435      	74.68422       	74.63175       	74.506615      	74.68331       	74.50136       	74.45879       	74.95911       	74.414894      	74.93412       	73.180504      	74.7792        	73.56729       	74.85614       	74.32013       	72.84003       	74.175644      	74.028564      	73.670235      	74.54064       	73.71613       	74.294         	74.32587       	74.2931        	73.63292       	74.05294       	73.719925      	73.70164       	74.946365      	73.39194       	74.71844       	74.51433       	74.18345       	74.40111       	73.91716       	74.39334       	74.93642       	74.31563       	74.484764      	74.44345       	74.39929       	74.60592       	74.51329       	74.53382       	74.80552       	74.07089       	74.51074       	74.79279       	74.21301       	74.4487        	74.62917       	74.38357       	74.68188       	74.92754       	74.31974       	74.57428       	74.11253       	74.22321       	75.1655        	74.02115       	74.43673       	74.9657        	74.11883       	74.198326      	74.372574      	74.86027       	74.17165       	74.364456      	74.85528       	74.39453       	74.406235      	74.53457       	73.93331       	74.61096       	74.73119       	74.610245      	
74.50315       	74.62076       	74.30674       	74.49638       	74.86722       	73.981804      	74.68931       	74.56359       	74.722336      	74.06785       	74.39848       	74.62388       	74.777145      	74.499565      	74.52307       	74.076355      	73.99281       	74.65018       	74.54256       	74.251236      	73.594444      	78.378654      	76.51686       	75.69975       	76.09576       	74.869255      	74.37922       	74.456795      	74.14248       	74.85919       	74.45629       	74.1015        	74.82058       	74.3946        	74.27575       	73.39853       	73.5975        	74.66234       	73.947914      	73.93332       	73.46789       	73.31569       	74.16001       	74.41861       	74.070656      	73.524796      	74.264626      	74.165955      	73.608635      	74.3248        	74.543785      	74.562546      	74.2744        	75.03289       	74.62867       	73.96384       	74.160805      	74.77642       	74.38016       	74.07859       	74.39194       	74.719986      	74.40398       	74.38425       	74.612854      	74.517815      	74.305954      	74.46177       	74.89123       	74.31958       	74.353424      	74.60255       	74.49583       	74.51698       	73.93474       	74.98909       	74.251816      	74.58624       	74.39606       	74.561005      	74.59479       	74.4647        	74.41779       	74.69162       	74.52838       	74.612335      	74.37584       	74.539986      	74.68418       	74.21507       	74.937744      	74.24182       	74.513885      	74.15774       	74.99382       	74.48045       	74.43372       	74.755135      	75.0109        	75.136116      	
74.77839       	74.72541       	73.97196       	74.38006       	74.83195       	74.45978       	74.64081       	74.599594      	74.3982        	74.54127       	74.07354       	74.28455       	74.56448       	74.76344       	74.085625      	74.51959       	74.39906       	74.51376       	73.68626       	74.92442       	73.77952       	78.207016      	76.37227       	75.98264       	75.95776       	74.97572       	74.79854       	73.7197        	74.50705       	74.308685      	74.123184      	73.75272       	74.20196       	74.54097       	73.38544       	74.486885      	73.385         	74.6581        	74.05753       	74.20381       	73.38097       	73.66592       	73.44257       	73.81641       	74.122         	74.54459       	74.63105       	74.324104      	74.37696       	74.36038       	74.68846       	74.35939       	74.41727       	74.35036       	75.001915      	74.36596       	74.261475      	74.5445        	74.89163       	73.74608       	74.73315       	74.245514      	74.36647       	74.75811       	74.414406      	74.60435       	74.62893       	74.31974       	74.34852       	74.57668       	74.369125      	74.409706      	74.7822        	74.299614      	74.29784       	74.903175      	74.08163       	74.447685      	74.5637        	74.87441       	74.32358       	74.44683       	74.372505      	74.91593       	74.171524      	74.23743       	74.760864      	74.652         	74.4893        	74.625244      	74.71497       	74.18452       	74.581184      	74.54245       	74.61464       	74.63004       	74.24447       	74.72579       	75.04947       	74.77019       	
74.52987       	74.5172        	74.50223       	74.122665      	74.762985      	74.5832        	74.1884        	74.44971       	74.56728       	74.31942       	74.40547       	74.86411       	74.32589       	74.74092       	74.22824       	74.54386       	74.09141       	74.60573       	74.323845      	74.343956      	73.89253       	76.71496       	77.65862       	75.28681       	75.12647       	74.79897       	74.96558       	74.15424       	73.79211       	74.7043        	74.30383       	73.530785      	73.97296       	74.45468       	73.99711       	73.79167       	72.98796       	74.091606      	73.87806       	72.909744      	73.960495      	74.261925      	74.632195      	74.66665       	74.57924       	74.51288       	74.567055      	74.236786      	74.48005       	74.5807        	74.65943       	74.16038       	74.908875      	73.96854       	74.586655      	74.53369       	74.71886       	74.68264       	74.474915      	74.16215       	74.5029        	74.37428       	74.30218       	74.212654      	74.93874       	74.477264      	74.33835       	74.52364       	74.46416       	74.648224      	74.411026      	74.491936      	74.676575      	74.495346      	74.45527       	74.60068       	74.67855       	74.39954       	74.436455      	74.5919        	74.47331       	74.14471       	74.7122        	74.69144       	74.33804       	74.36716       	74.4865        	74.91398       	74.60503       	73.97327       	74.80072       	74.4792        	74.39856       	74.70534       	74.48656       	73.9601        	74.58605       	74.002304      	74.583916      	74.863106      	
74.736465      	74.59865       	74.42502       	74.45013       	74.710915      	74.63292       	74.487175      	74.46081       	74.39106       	75.010475      	73.9271        	74.32015       	74.67603       	74.34976       	74.46287       	74.702286      	74.37978       	74.302666      	74.660576      	74.25365       	74.12183       	74.58384       	76.80667       	74.82539       	75.7921        	75.306656      	75.452736      	74.80559       	74.189384      	74.038536      	73.24096       	74.22804       	73.72219       	74.15618       	74.20562       	73.00611       	74.61211       	74.236115      	74.6246        	74.80138       	74.28975       	74.42522       	74.35658       	74.71463       	74.94674       	73.725174      	74.912224      	74.42081       	74.145836      	74.52967       	74.32754       	75.01272       	74.1751        	73.82641       	74.98043       	74.68486       	74.290726      	74.16204       	74.55715       	74.51898       	74.29109       	74.32919       	74.2743        	74.64423       	74.85906       	74.27023       	74.441315      	74.489624      	74.61689       	74.65306       	74.38557       	74.67393       	74.48965       	74.0532        	74.46945       	74.740234      	74.25358       	74.697136      	74.46811       	74.53777       	74.7929        	74.28732       	74.55708       	74.794525      	74.20563       	74.42274       	74.723564      	74.4445        	74.77205       	74.645744      	74.45891       	74.70131       	74.31819       	74.37436       	74.813576      	74.52026       	74.57697       	74.19516       	74.81593       	74.8118        	
74.44443       	74.59509       	74.436325      	74.47634       	74.3808        	74.661125      	74.75974       	74.20408       	74.2646        	74.56542       	74.744865      	74.248665      	74.56294       	74.11988       	74.79857       	74.46722       	74.473045      	74.44915       	74.26566       	74.72566       	74.41334       	74.04791       	74.5416        	75.5359        	76.4024        	75.56129       	74.45027       	75.26529       	74.095665      	73.771         	73.508446      	73.85044       	73.86712       	74.57013       	74.34151       	74.078865      	74.84966       	74.53745       	74.2321        	74.74851       	74.17593       	74.636154      	74.67851       	74.71417       	74.873535      	73.986305      	74.321465      	74.62603       	74.27296       	74.70506       	74.69137       	74.16552       	74.41467       	74.63668       	74.40072       	74.73589       	74.352684      	74.5309        	74.71796       	74.23712       	74.239586      	75.13419       	74.37382       	74.089386      	74.71708       	74.910126      	74.19713       	74.59865       	74.422646      	74.41637       	74.343155      	74.36871       	74.2908        	74.39829       	75.13033       	74.26853       	74.10835       	74.20506       	75.44973       	73.71738       	74.71865       	74.31691       	74.61695       	73.85838       	74.65967       	74.386765      	74.48853       	74.744385      	74.15135       	75.241486      	73.9876        	75.32438       	74.267624      	74.35078       	74.71933       	74.13566       	73.306564      	74.733284      	75.973465      	75.06657       	
74.29712       	74.7488        	74.36404       	74.523476      	74.61396       	74.298904      	74.38068       	74.74166       	74.44847       	74.61527       	74.67517       	75.03418       	73.885574      	74.09879       	74.72465       	74.60762       	74.03782       	74.91255       	74.241165      	74.52315       	74.66629       	74.256325      	74.30978       	73.87356       	75.05351       	75.001305      	75.02509       	74.08719       	74.802216      	74.81156       	73.76635       	74.675995      	74.62789       	74.37764       	74.595634      	74.53927       	74.467865      	74.119835      	74.710464      	74.899155      	74.28435       	74.51891       	74.5755        	74.84027       	74.01946       	74.566154      	74.79864       	74.35651       	74.297775      	75.11105       	74.21897       	74.157555      	74.58538       	74.8102        	74.027626      	74.277405      	74.7441        	74.427864      	74.00214       	74.38204       	74.36209       	74.40433       	74.51632       	74.40876       	74.61532       	74.57476       	74.1733        	74.61282       	74.626595      	74.303116      	74.465004      	74.53152       	74.38916       	74.94867       	74.12884       	74.58933       	74.38077       	74.797905      	74.449905      	74.03865       	75.08584       	74.18419       	74.9397        	73.97455       	74.46906       	74.463905      	74.68229       	74.84096       	74.67284       	74.18327       	74.502785      	74.5515        	74.48761       	74.48442       	74.21348       	74.7811        	74.071556      	74.377235      	74.545006      	74.862076      	
74.54326       	74.51728       	74.42881       	74.63573       	74.48717       	74.52814       	74.537674      	74.91365       	73.95113       	74.426704      	74.973465      	74.44662       	74.2071        	74.54505       	74.6152        	74.520676      	74.249466      	74.54121       	74.18351       	74.81325       	74.12772       	75.032196      	74.13847       	74.50176       	74.339554      	74.8101        	74.38122       	73.72794       	75.28018       	74.39642       	74.351906      	74.629         	74.57335       	74.392006      	75.15861       	73.815445      	74.295204      	74.62439       	74.46689       	74.72297       	74.35174       	74.462944      	74.71085       	74.4906        	74.683784      	74.176704      	74.299324      	74.93343       	74.30271       	74.5715        	74.54933       	74.59897       	74.35113       	74.47755       	74.57793       	74.89986       	74.049164      	74.57593       	74.56167       	74.46944       	74.137405      	74.52284       	74.41924       	74.160484      	75.05157       	74.521126      	74.33317       	74.44388       	74.62508       	74.63899       	74.2832        	74.67932       	74.41212       	74.49854       	74.41009       	74.8397        	73.94524       	74.5949        	74.54466       	74.48297       	74.63783       	74.13179       	75.10306       	74.23762       	74.32652       	74.881004      	74.57042       	74.528175      	74.22516       	74.84105       	74.49749       	74.43803       	74.9631        	74.469215      	74.14344       	74.35366       	74.10893       	74.69832       	74.66054       	74.74613       	
73.92589       	74.80089       	74.427864      	74.45586       	74.24875       	74.8206        	74.31522       	74.51052       	74.48545       	74.27903       	74.6429        	74.68239       	74.41868       	74.411064      	74.43108       	74.82684       	74.33868       	74.531204      	74.64435       	74.20038       	74.67714       	74.80192       	74.36989       	74.35295       	74.71112       	74.5124        	74.45082       	74.49627       	75.01218       	74.19468       	74.37885       	74.66945       	74.642845      	74.30323       	74.250824      	74.677795      	74.74367       	74.43219       	74.181145      	74.63453       	74.6761        	74.40078       	74.52112       	74.434906      	74.464195      	74.41657       	74.64394       	74.55854       	74.542625      	74.49587       	74.3505        	74.647835      	74.31157       	74.20608       	74.91143       	74.77595       	73.95611       	74.70258       	74.39142       	74.5905        	74.640564      	74.67509       	74.21772       	73.96594       	74.61223       	74.57009       	74.295204      	74.56054       	74.97386       	74.01491       	74.64728       	74.615395      	74.42398       	74.79323       	74.18154       	74.006905      	74.93173       	74.682915      	74.521164      	74.61077       	74.23057       	74.29559       	74.71898       	74.36769       	74.51898       	74.3437        	73.845146      	75.325294      	74.60728       	74.28689       	75.2573        	74.18007       	74.374664      	74.30954       	73.915054      	74.90303       	74.064064      	73.53907       	74.796165      	75.533394      	
73.874214      	74.37206       	74.447334      	74.17214       	74.798836      	74.44186       	74.740005      	74.352425      	74.54642       	74.427635      	74.47363       	74.576355      	74.34281       	74.6821        	74.47061       	74.75981       	73.90412       	74.65511       	75.26553       	73.950005      	74.924835      	74.42035       	74.4881        	74.694534      	74.32591       	74.61523       	73.96803       	74.50545       	75.27099       	74.184135      	74.435814      	74.50444       	74.5324        	74.49154       	74.396805      	74.73243       	74.42233       	74.539825      	74.654         	74.25716       	74.665565      	74.34544       	74.63493       	74.59061       	74.57207       	74.04578       	74.48023       	74.42741       	74.36847       	74.76719       	74.26356       	74.60281       	74.57503       	74.09705       	75.24289       	74.17326       	74.21896       	75.266914      	74.45832       	73.914856      	74.65326       	73.99491       	74.69042       	74.25694       	74.3073        	74.24292       	74.48365       	74.94077       	73.898         	75.07551       	73.77199       	75.21506       	74.115944      	74.46533       	74.90283       	73.94412       	74.4877        	74.464066      	74.55617       	74.94062       	74.55787       	74.64284       	74.024         	74.047966      	74.668076      	74.70978       	74.26643       	74.214005      	75.25224       	74.53528       	73.92855       	74.58848       	74.47512       	74.96849       	74.14617       	74.65887       	73.42294       	74.07114       	75.43098       	75.79428       	
73.29633       	75.19637       	74.16151       	74.152504      	74.28427       	75.44825       	73.76132       	74.51783       	74.3178        	74.62084       	74.34541       	74.659996      	74.26346       	74.54388       	74.71099       	74.287926      	74.70744       	73.6772        	75.18929       	74.78239       	74.03529       	74.31236       	74.86489       	74.67989       	74.31593       	73.704         	74.34224       	75.53481       	75.16633       	73.832054      	74.68295       	74.23812       	74.92894       	74.06598       	75.010376      	74.227486      	74.082466      	74.59116       	74.53095       	74.46261       	74.46697       	74.64839       	74.52259       	74.566765      	74.4414        	74.635765      	74.40947       	74.4594        	74.36876       	74.753         	74.47778       	74.55651       	74.63828       	74.26383       	74.49606       	74.63247       	74.41898       	74.61174       	74.18842       	74.70965       	74.57916       	74.370514      	74.32585       	74.635185      	74.34935       	74.634705      	74.36261       	75.04686       	74.0686        	74.34274       	74.74676       	74.717926      	74.65667       	73.905174      	74.84318       	74.566315      	74.16927       	74.23148       	74.60109       	74.27312       	74.91863       	74.320076      	74.53162       	74.436966      	74.57124       	74.39136       	74.62894       	74.360504      	74.64015       	74.67194       	74.60647       	74.46385       	74.48202       	74.44541       	74.643326      	74.32086       	74.706696      	74.45403       	74.70549       	74.842926      	
73.6163        	74.23819       	74.20926       	74.443794      	74.66945       	74.6957        	74.16825       	74.667786      	73.905136      	74.47566       	74.77627       	74.67517       	74.69621       	74.138016      	74.25579       	74.55907       	74.718765      	74.212364      	74.628555      	74.502464      	74.53132       	74.46895       	74.488846      	74.6158        	74.73363       	74.31745       	74.6141        	74.988205      	74.18904       	74.44          	74.7899        	74.31857       	74.24953       	74.92389       	74.10067       	74.39461       	74.78664       	74.761566      	74.45953       	73.89706       	74.833466      	74.50764       	74.3076        	75.094894      	74.06046       	74.409874      	74.27059       	74.98526       	74.082664      	74.6768        	73.995575      	75.17181       	74.436806      	74.267075      	74.72279       	74.45246       	73.9599        	74.589294      	74.29236       	74.80179       	74.43742       	74.54568       	74.45754       	73.927444      	75.062614      	73.78543       	74.535545      	74.38182       	74.518394      	74.455154      	73.94148       	74.893265      	74.50521       	74.452736      	74.36714       	74.35308       	74.73235       	74.31929       	74.52113       	74.485916      	74.62252       	75.00312       	74.294304      	74.580986      	74.52971       	73.89038       	74.350685      	74.6322        	74.78495       	74.34683       	74.29903       	75.08829       	74.53791       	74.266685      	75.06837       	74.02052       	74.025986      	73.874954      	74.96242       	75.19288       	
73.55637       	74.32734       	74.28245       	74.64149       	74.26897       	74.14506       	74.673164      	74.75587       	74.22704       	74.69261       	74.689865      	73.9427        	74.83626       	74.24457       	74.63529       	74.796265      	74.27618       	74.46458       	74.42442       	74.52613       	74.77698       	74.18961       	74.52672       	74.38976       	74.82784       	74.30462       	74.65537       	74.680756      	74.440704      	74.60286       	74.46239       	74.49078       	74.52232       	74.65104       	74.35058       	74.60433       	74.40071       	74.40089       	74.68343       	74.46379       	74.531204      	74.64906       	74.13198       	75.00592       	74.39205       	74.566574      	73.87533       	74.57005       	74.39686       	74.524925      	74.69177       	74.344986      	74.24285       	74.36115       	74.7465        	74.11589       	74.92992       	74.50754       	73.98695       	75.124435      	74.499504      	74.12831       	74.48441       	74.5585        	74.62492       	73.877556      	74.415276      	74.71369       	74.58209       	74.37599       	74.486855      	74.01788       	74.91513       	74.28777       	74.55738       	74.60096       	74.76141       	74.43946       	74.59625       	74.8187        	74.03158       	74.6379        	74.22676       	74.6193        	74.99808       	74.17326       	74.383934      	74.776764      	73.9338        	74.28199       	74.479126      	74.485634      	75.00767       	74.04686       	74.72306       	74.14012       	74.58952       	74.63805       	74.69166       	74.24648       	
74.24776       	74.211716      	74.660385      	74.479996      	74.308         	74.62558       	74.48454       	74.56609       	74.31646       	74.750984      	74.63166       	74.14071       	74.40242       	74.622696      	75.04662       	74.4041        	74.41954       	74.50862       	74.20548       	74.65191       	74.74182       	74.08937       	74.55492       	74.442024      	74.523674      	74.52706       	74.41154       	74.91441       	74.46383       	74.4132        	74.5503        	74.55288       	74.30599       	74.266556      	74.553314      	74.7066        	74.57685       	74.12586       	75.18121       	74.05428       	74.59616       	74.59263       	74.10598       	74.73147       	74.58645       	73.95891       	75.21114       	74.1518        	73.73752       	73.4867        	75.83268       	75.50386       	73.81561       	74.16741       	74.48773       	74.7866        	74.585594      	73.86291       	75.20811       	73.92783       	74.842896      	74.8358        	73.96556       	74.35547       	75.09695       	73.83233       	74.44926       	74.43235       	74.52665       	74.41969       	74.38704       	74.4687        	74.50028       	74.695435      	74.47347       	74.52233       	74.71242       	74.45506       	74.36272       	74.66877       	74.501         	74.56036       	74.55452       	74.453476      	74.50051       	74.481705      	75.085075      	74.0055        	74.28079       	74.44644       	74.755714      	74.5789        	74.53716       	74.394646      	74.76218       	74.402405      	74.47299       	74.49791       	74.64483       	74.73319       	
74.6475        	74.25698       	74.58467       	74.68165       	74.09703       	74.70197       	74.492836      	74.54706       	74.63959       	74.34231       	74.504036      	74.799576      	74.288376      	74.62103       	74.25875       	74.58976       	74.73866       	74.306595      	74.32728       	74.96626       	74.019905      	74.689476      	74.81579       	73.951866      	74.88704       	74.56644       	74.346405      	74.70783       	74.51572       	74.80762       	74.28977       	74.24603       	74.98525       	74.487434      	74.15254       	74.47356       	74.42611       	74.467316      	74.4472        	74.59459       	74.59207       	74.97167       	74.09456       	74.2319        	74.86274       	74.37693       	74.445244      	75.03906       	73.79604       	74.70548       	74.36943       	74.86432       	74.40402       	74.31907       	74.52783       	74.525276      	74.35012       	74.59893       	75.06227       	74.49938       	73.997246      	73.94699       	74.91782       	74.00628       	74.96311       	74.34701       	74.5917        	74.23591       	74.67024       	74.04048       	74.488335      	74.54838       	74.37491       	74.41816       	74.84275       	74.06374       	75.0349        	74.54527       	74.29223       	74.83608       	74.55566       	74.503         	74.7381        	74.06638       	74.27697       	74.67352       	74.41474       	74.41501       	74.49054       	74.12296       	75.24299       	74.153786      	75.08811       	74.40507       	74.39746       	73.89587       	73.88986       	74.59871       	74.88478       	74.074234      	
74.70867       	73.79584       	74.947685      	74.46761       	74.45246       	74.21905       	74.46459       	74.358925      	74.3606        	74.5282        	74.49373       	74.72334       	74.135284      	75.30022       	74.04536       	74.735344      	74.434845      	74.498985      	74.67998       	74.19977       	74.357796      	74.15774       	74.33144       	74.70149       	73.91272       	74.67054       	74.4809        	74.57681       	74.49372       	74.637505      	74.59541       	74.59811       	74.62584       	74.72641       	73.81729       	74.56076       	74.349724      	74.62151       	74.31133       	74.6345        	74.51252       	74.38491       	74.586044      	74.4235        	74.28872       	75.082016      	74.03492       	74.7523        	74.43079       	74.40878       	74.51731       	74.53143       	74.44505       	74.32545       	74.56943       	74.58743       	74.5175        	74.59712       	74.314476      	74.78142       	74.254875      	74.28673       	74.87569       	74.27475       	74.45459       	74.65908       	74.137924      	75.03535       	73.839935      	75.17321       	74.11243       	74.92447       	73.77735       	75.046196      	73.95471       	74.36141       	75.00248       	74.51991       	74.45528       	74.48267       	73.91539       	74.595375      	74.46964       	74.83949       	74.37369       	74.318634      	75.011116      	74.0503        	74.437744      	74.74105       	74.52831       	74.319435      	74.935875      	74.16927       	73.90053       	73.53327       	75.4985        	77.840805      	78.03864       	77.1766        	
74.620575      	74.59563       	74.31598       	74.32366       	74.80637       	74.3717        	74.164825      	74.98515       	74.22669       	74.82663       	74.463005      	74.567116      	74.41394       	74.13103       	74.656746      	74.625404      	74.417885      	74.22712       	74.54252       	74.57265       	74.52999       	74.55733       	74.59442       	74.40198       	74.276306      	74.692406      	74.49988       	74.584076      	74.439255      	74.8134        	74.58456       	74.50719       	73.8536        	74.91141       	74.710526      	74.68095       	74.66906       	74.476685      	74.064156      	74.2624        	75.12691       	74.00201       	74.340645      	74.424126      	74.82018       	74.324875      	74.62019       	74.5048        	74.31216       	74.89973       	74.68649       	74.88481       	74.72955       	73.735634      	74.87744       	74.68498       	73.66011       	74.958336      	74.7302        	74.09251       	74.43236       	74.641716      	74.75693       	74.53818       	73.978966      	73.854256      	74.50308       	75.05053       	74.19614       	74.68947       	74.13273       	74.43794       	74.46415       	74.46084       	74.55276       	74.499504      	74.80259       	74.286514      	74.253075      	74.68506       	74.453445      	74.48916       	74.4178        	74.59686       	74.38589       	74.965385      	74.70352       	73.78397       	74.38384       	74.29179       	74.8123        	74.74105       	72.85571       	76.71995       	76.721054      	76.30825       	76.386795      	76.278175      	76.029686      	76.032974      	
74.23229       	74.55651       	74.639786      	74.067856      	74.77109       	74.492744      	74.336426      	74.72174       	74.42044       	74.57289       	74.48343       	74.30789       	74.54154       	74.62868       	74.54107       	74.15936       	75.13198       	74.23629       	74.73343       	74.58326       	74.48955       	74.45565       	74.318726      	74.73559       	74.723236      	73.773094      	74.88853       	74.497925      	74.8628        	74.36651       	74.24628       	74.294395      	75.14273       	74.11501       	74.44589       	74.929344      	73.83099       	74.322845      	74.48232       	74.45392       	74.793335      	74.26997       	74.48905       	74.58411       	74.57929       	74.50997       	74.52169       	74.33879       	74.79398       	74.58406       	74.25448       	74.51315       	74.428986      	74.60433       	74.36211       	74.32126       	74.49892       	75.05259       	74.37083       	74.76467       	73.80668       	74.92234       	74.106         	74.57217       	74.583405      	74.01953       	73.84053       	75.37466       	74.034836      	74.184166      	74.26468       	75.04123       	73.888115      	74.41973       	74.65082       	74.81749       	74.29098       	74.7463        	73.935844      	75.07027       	73.80474       	74.89722       	74.32216       	74.16326       	74.62125       	74.92875       	73.997986      	74.26103       	74.90121       	74.16797       	72.88863       	75.423615      	78.02396       	76.63139       	75.445724      	75.063965      	75.1342        	74.80694       	74.15412       	74.00863       	
