# www.neaspec.com
# Scan:	 	Whitelight Imaging
# Project:	 	20251007_PS
# Description:	 	
# Date:	 	10/07/2025 13:44:09
# Scanner Center Position (X, Y):	[µm]	49.99	50.01	 
# Rotation:	[°]	0	 	 
# Scan Area (X, Y, Z):	[µm]	5.000	5.000	0.000
# Pixel Area (X, Y, Z):	[px]	100	100	1
# Interferometer Center/Distance:	[µm]	546.342	0.000	 
# Averaging:	 	1	 	 
# Integration time:	[ms]	5	 	 
# Wavenumber Scaling:	 	1.000000	 	 
# Laser Source:	 	4.5-15 µm nano-FTIR laser
# Detector:	 	R
# Target Wavelength:	[µm]	7.502	 	 
# Demodulation Mode:	 	Fourier
# Tip Frequency:	[Hz]	241,340.500	 	 
# Tip Amplitude:	[mV]	45.700	 	 
# Tapping Amplitude:	[nm]	76.624	 	 
# Modulation Frequency:	[Hz]	0.000	 	 
# Modulation Amplitude:	[mV]	0.000	 	 
# Modulation Offset:	[mV]	0.000	 	 
# Setpoint:	[%]	79.75	 	 
# Regulator (P, I, D):	 	4.206850	8.625812	1.000000
# Tip Potential:	[mV]	0.000	 	 
# M1A Scaling:	[nm/V]	0.426	 	 
# M1A Cantilever Factor:	 	1,000	 	 
# Q-Factor:	 	487.4	 	 
# Version:	 	2.1.11536.0
1140.7151      	1140.6334      	1140.6458      	1140.6066      	1140.5989      	1140.6492      	1140.551       	1140.667       	1140.6232      	1140.5638      	1140.5897      	1140.5975      	1140.6039      	1140.5178      	1140.6078      	1140.4952      	1140.5968      	1140.4888      	1140.9419      	1140.7797      	1140.7261      	1140.528       	1140.5343      	1140.4908      	1140.5198      	1140.5715      	1140.546       	1140.5317      	1140.5466      	1140.5695      	1140.426       	1140.5624      	1140.4535      	1140.451       	1140.616       	1140.5007      	1140.4437      	1140.3374      	1140.3514      	1140.439       	1140.411       	1140.5343      	1140.3612      	1140.4315      	1140.5751      	1140.3606      	1140.3572      	1140.455       	1140.4485      	1140.4207      	1140.371       	1140.3508      	1140.2977      	1140.4316      	1140.3593      	1140.6996      	1140.5695      	1140.5618      	1140.5542      	1140.5348      	1140.5149      	1140.5586      	1140.5537      	1140.5621      	1140.538       	1140.5939      	1140.5995      	1140.5243      	1140.6206      	1140.5676      	1140.6586      	1140.6533      	1140.6295      	1140.6089      	1140.6509      	1140.5972      	1140.6653      	1140.554       	1140.6622      	1140.6682      	1140.6156      	1140.6749      	1140.6984      	1140.6843      	1140.7223      	1140.7214      	1140.6218      	1140.718       	1140.674       	1140.7407      	1140.695       	1140.714       	1140.7606      	1140.6652      	1140.7356      	1140.7843      	1140.8401      	1140.632       	1140.8049      	1140.7748      	
1140.6508      	1140.5906      	1140.6105      	1140.5995      	1140.6077      	1140.6447      	1140.5785      	1140.6368      	1140.5994      	1140.551       	1140.5895      	1140.5787      	1140.6265      	1140.5701      	1140.5544      	1140.6124      	1140.5526      	1140.6328      	1140.8828      	1140.7931      	1140.7048      	1140.6787      	1140.4954      	1140.5586      	1140.6211      	1140.5697      	1140.5997      	1140.4523      	1140.5171      	1140.5829      	1140.4854      	1140.592       	1140.5804      	1140.4397      	1140.6857      	1140.5259      	1140.4591      	1140.3682      	1140.5404      	1140.4374      	1140.3966      	1140.5662      	1140.4658      	1140.2974      	1140.5623      	1140.3535      	1140.463       	1140.5509      	1140.6097      	1140.525       	1140.5759      	1140.5087      	1140.5171      	1140.5496      	1140.5061      	1140.4614      	1140.4828      	1140.5576      	1140.4827      	1140.5402      	1140.4839      	1140.5469      	1140.5564      	1140.4023      	1140.5864      	1140.508       	1140.473       	1140.5112      	1140.5256      	1140.4948      	1140.5131      	1140.4933      	1140.5139      	1140.4552      	1140.4038      	1140.5812      	1140.4618      	1140.569       	1140.5337      	1140.564       	1140.3849      	1140.6166      	1140.5546      	1140.6134      	1140.5625      	1140.6642      	1140.6075      	1140.6202      	1140.6512      	1140.6588      	1140.6711      	1140.5504      	1140.7405      	1140.6204      	1140.7214      	1140.6547      	1140.6199      	1140.6697      	1140.6078      	1140.74        	
1140.5779      	1140.5577      	1140.5157      	1140.4991      	1140.5226      	1140.491       	1140.5095      	1140.4888      	1140.466       	1140.5072      	1140.4614      	1140.4595      	1140.4083      	1140.4052      	1140.3358      	1140.4929      	1140.4529      	1140.4103      	1140.6627      	1140.6539      	1140.5736      	1140.5465      	1140.508       	1140.397       	1140.3949      	1140.4448      	1140.3806      	1140.3469      	1140.3887      	1140.367       	1140.4054      	1140.3108      	1140.5527      	1140.353       	1140.4104      	1140.4685      	1140.2867      	1140.3284      	1140.2865      	1140.3354      	1140.3954      	1140.2883      	1140.2723      	1140.4661      	1140.5812      	1140.5452      	1140.5037      	1140.5835      	1140.4523      	1140.4072      	1140.3146      	1140.4312      	1140.2875      	1140.5173      	1140.3424      	1140.3801      	1140.2401      	1140.3859      	1140.45        	1140.3259      	1140.3044      	1140.4468      	1140.4144      	1140.3462      	1140.4429      	1140.3695      	1140.3384      	1140.3234      	1140.372       	1140.317       	1140.4198      	1140.3301      	1140.3865      	1140.427       	1140.4479      	1140.407       	1140.3866      	1140.185       	1140.5083      	1140.4221      	1140.2533      	1140.4733      	1140.4794      	1140.4371      	1140.4832      	1140.5067      	1140.5105      	1140.4834      	1140.5088      	1140.4806      	1140.6011      	1140.5066      	1140.4043      	1140.6649      	1140.448       	1140.4792      	1140.6649      	1140.5479      	1140.492       	1140.5676      	
1140.373       	1140.3446      	1140.3092      	1140.362       	1140.3438      	1140.3768      	1140.2991      	1140.2952      	1140.3474      	1140.3126      	1140.2987      	1140.3014      	1140.2281      	1140.3264      	1140.2803      	1140.2997      	1140.2529      	1140.2751      	1140.4323      	1140.5398      	1140.3752      	1140.4196      	1140.3666      	1140.2499      	1140.3093      	1140.2068      	1140.1141      	1140.0645      	1140.4052      	1140.2329      	1140.1501      	1140.1893      	1140.3127      	1140.0692      	1140.3009      	1140.2323      	1140.0878      	1140.1381      	1140.136       	1140.0732      	1140.4172      	1140.2976      	1140.3218      	1140.1515      	1140.2955      	1140.2078      	1140.2239      	1140.2267      	1140.3237      	1140.1974      	1140.258       	1140.1655      	1140.2534      	1140.2424      	1140.1499      	1140.23        	1140.2739      	1140.2273      	1140.2081      	1140.2023      	1140.2532      	1140.2026      	1140.2518      	1140.2295      	1140.274       	1140.2472      	1140.2257      	1140.2478      	1140.1571      	1140.2993      	1140.2096      	1140.268       	1140.31        	1140.2455      	1140.2802      	1140.3358      	1140.2263      	1140.3412      	1140.2949      	1140.3511      	1140.337       	1140.3284      	1140.3633      	1140.3356      	1140.3665      	1140.4908      	1140.4243      	1140.4224      	1140.4645      	1140.3691      	1140.4591      	1140.5118      	1140.4491      	1140.5063      	1140.3612      	1140.5732      	1140.5261      	1140.4612      	1140.511       	1140.5626      	
1140.4965      	1140.508       	1140.4583      	1140.4208      	1140.4933      	1140.4784      	1140.4996      	1140.4088      	1140.3153      	1140.3844      	1140.3732      	1140.351       	1140.3444      	1140.3944      	1140.3505      	1140.3829      	1140.3761      	1140.4305      	1140.3832      	1140.5714      	1140.5314      	1140.6543      	1140.5236      	1140.4471      	1140.4633      	1140.5466      	1140.1965      	1140.3423      	1140.3503      	1140.2605      	1140.4882      	1140.24        	1140.3966      	1140.2588      	1140.4783      	1140.3391      	1140.3925      	1140.5591      	1140.4054      	1140.4884      	1140.461       	1140.5101      	1140.4753      	1140.464       	1140.4282      	1140.2563      	1140.5956      	1140.4246      	1140.4894      	1140.5332      	1140.4677      	1140.4464      	1140.4407      	1140.4624      	1140.4952      	1140.4902      	1140.4698      	1140.4835      	1140.4851      	1140.4407      	1140.503       	1140.5383      	1140.4764      	1140.5048      	1140.4572      	1140.5442      	1140.4739      	1140.542       	1140.5391      	1140.529       	1140.503       	1140.6456      	1140.5529      	1140.5564      	1140.5236      	1140.5784      	1140.5259      	1140.5197      	1140.6343      	1140.4637      	1140.7675      	1140.587       	1140.6329      	1140.579       	1140.8018      	1140.6562      	1140.6996      	1140.7256      	1140.6909      	1140.7081      	1140.7161      	1140.78        	1140.7411      	1140.711       	1140.7579      	1140.8046      	1140.6907      	1140.7408      	1140.7518      	1140.7704      	
1140.7233      	1140.6693      	1140.7261      	1140.7786      	1140.7026      	1140.6467      	1140.6542      	1140.6582      	1140.6713      	1140.596       	1140.6111      	1140.7449      	1140.6345      	1140.6649      	1140.6265      	1140.6204      	1140.611       	1140.6243      	1140.587       	1140.5822      	1140.7538      	1140.8417      	1140.6841      	1140.6409      	1140.7135      	1140.7183      	1140.4692      	1140.5209      	1140.6046      	1140.5741      	1140.5581      	1140.6047      	1140.699       	1140.7415      	1140.712       	1140.6241      	1140.6517      	1140.6643      	1140.5865      	1140.7001      	1140.6863      	1140.5555      	1140.5461      	1140.6798      	1140.5973      	1140.6509      	1140.554       	1140.6636      	1140.6914      	1140.5256      	1140.6647      	1140.651       	1140.6683      	1140.6833      	1140.647       	1140.5333      	1140.7496      	1140.6387      	1140.6345      	1140.7047      	1140.762       	1140.6884      	1140.6735      	1140.693       	1140.6667      	1140.7034      	1140.6619      	1140.6039      	1140.727       	1140.6697      	1140.6011      	1140.6315      	1140.838       	1140.7108      	1140.6718      	1140.5985      	1140.8444      	1140.738       	1140.757       	1140.8158      	1140.7765      	1140.7769      	1140.8542      	1140.8273      	1140.7804      	1140.9205      	1140.7876      	1140.8726      	1140.938       	1140.8997      	1140.7642      	1141.0262      	1140.7947      	1140.9817      	1140.8901      	1141.0024      	1140.8604      	1140.9088      	1140.8958      	1140.8376      	
1140.6775      	1140.6638      	1140.6405      	1140.662       	1140.6428      	1140.6215      	1140.6376      	1140.5762      	1140.6306      	1140.5155      	1140.4712      	1140.509       	1140.6052      	1140.5499      	1140.5172      	1140.5605      	1140.551       	1140.5581      	1140.4958      	1140.5286      	1140.5482      	1140.6013      	1140.6304      	1140.6528      	1140.539       	1140.522       	1140.4504      	1140.5521      	1140.7139      	1140.6313      	1140.5448      	1140.6339      	1140.6382      	1140.5758      	1140.5859      	1140.6198      	1140.6414      	1140.6638      	1140.4979      	1140.352       	1140.8148      	1140.5957      	1140.5405      	1140.6036      	1140.5901      	1140.5651      	1140.5292      	1140.5995      	1140.6056      	1140.545       	1140.5583      	1140.6132      	1140.5302      	1140.6917      	1140.512       	1140.5591      	1140.6393      	1140.5853      	1140.5903      	1140.615       	1140.6072      	1140.6243      	1140.6311      	1140.6211      	1140.6438      	1140.6124      	1140.6644      	1140.6412      	1140.6458      	1140.6097      	1140.6536      	1140.6858      	1140.6411      	1140.6887      	1140.6388      	1140.6694      	1140.6171      	1140.6915      	1140.6567      	1140.6293      	1140.714       	1140.771       	1140.7179      	1140.5751      	1140.8746      	1140.7489      	1140.7399      	1140.7888      	1140.781       	1140.8036      	1140.7424      	1140.5061      	1140.9678      	1140.8619      	1140.7661      	1140.643       	1140.9099      	1140.6991      	1140.7863      	1140.7744      	
1140.5265      	1140.5007      	1140.49        	1140.4938      	1140.453       	1140.3419      	1140.5168      	1140.4078      	1140.436       	1140.4305      	1140.283       	1140.5399      	1140.3905      	1140.427       	1140.3839      	1140.4891      	1140.4622      	1140.4615      	1140.4495      	1140.3407      	1140.4768      	1140.4683      	1140.3663      	1140.5321      	1140.3737      	1140.6112      	1140.471       	1140.5002      	1140.487       	1140.4568      	1140.4817      	1140.4172      	1140.5007      	1140.4987      	1140.437       	1140.5958      	1140.5575      	1140.4932      	1140.3966      	1140.2294      	1140.6805      	1140.3744      	1140.4104      	1140.3964      	1140.3644      	1140.4376      	1140.3278      	1140.3962      	1140.3876      	1140.3705      	1140.3417      	1140.2668      	1140.441       	1140.3383      	1140.4203      	1140.2936      	1140.3123      	1140.3938      	1140.2957      	1140.3594      	1140.324       	1140.3334      	1140.3767      	1140.3005      	1140.3633      	1140.3376      	1140.3524      	1140.3451      	1140.3079      	1140.3694      	1140.3136      	1140.3269      	1140.3202      	1140.3596      	1140.3435      	1140.3593      	1140.3943      	1140.3623      	1140.4171      	1140.3308      	1140.3848      	1140.5071      	1140.397       	1140.4211      	1140.4384      	1140.4692      	1140.423       	1140.4338      	1140.3951      	1140.4929      	1140.5663      	1140.4891      	1140.3536      	1140.5402      	1140.4902      	1140.4596      	1140.3837      	1140.503       	1140.4623      	1140.3503      	
1140.2648      	1140.3167      	1140.2655      	1140.1031      	1140.0885      	1140.3809      	1140.1447      	1140.2819      	1140.2439      	1140.2399      	1140.2151      	1140.1763      	1140.1848      	1140.0464      	1140.2853      	1140.1681      	1140.1483      	1140.1492      	1140.2202      	1140.1722      	1140.1984      	1140.2013      	1140.079       	1140.2631      	1140.1819      	1140.2955      	1140.1945      	1140.1667      	1140.1957      	1140.3474      	1140.2338      	1140.0979      	1140.3706      	1140.2263      	1140.1965      	1140.3442      	1140.2856      	1140.2268      	1140.2866      	1140.2653      	1140.2627      	1140.2733      	1140.1997      	1140.2802      	1140.2703      	1140.2778      	1140.302       	1140.2793      	1140.2593      	1140.3176      	1140.2805      	1140.2823      	1140.3923      	1140.3518      	1140.4213      	1140.2952      	1140.3905      	1140.4768      	1140.3192      	1140.4509      	1140.4491      	1140.3848      	1140.4595      	1140.4174      	1140.3848      	1140.4755      	1140.4915      	1140.4276      	1140.4292      	1140.523       	1140.3878      	1140.5228      	1140.3942      	1140.6072      	1140.474       	1140.4585      	1140.4895      	1140.5342      	1140.6072      	1140.4808      	1140.6073      	1140.5446      	1140.5741      	1140.5178      	1140.5897      	1140.5636      	1140.5118      	1140.6167      	1140.5385      	1140.5626      	1140.408       	1140.6699      	1140.4056      	1140.6245      	1140.438       	1140.5419      	1140.675       	1140.4224      	1140.5128      	1140.4634      	
1140.3248      	1140.3054      	1140.2328      	1140.2292      	1140.2782      	1140.139       	1140.1666      	1140.3947      	1140.3165      	1140.323       	1140.3167      	1140.2529      	1140.2473      	1140.2389      	1140.2583      	1140.1665      	1140.3273      	1140.2654      	1140.2811      	1140.2898      	1140.2892      	1140.337       	1140.2776      	1140.3635      	1140.3754      	1140.3558      	1140.3594      	1140.3303      	1140.3058      	1140.3804      	1140.3593      	1140.3307      	1140.3173      	1140.3907      	1140.3518      	1140.2959      	1140.3489      	1140.3715      	1140.3724      	1140.3474      	1140.3077      	1140.3766      	1140.3296      	1140.2333      	1140.3856      	1140.2963      	1140.3304      	1140.2988      	1140.3557      	1140.3694      	1140.2947      	1140.2164      	1140.4929      	1140.2708      	1140.3069      	1140.3501      	1140.3276      	1140.4868      	1140.3416      	1140.3876      	1140.4327      	1140.3529      	1140.3431      	1140.4465      	1140.3915      	1140.4095      	1140.3298      	1140.515       	1140.437       	1140.4364      	1140.3982      	1140.4591      	1140.494       	1140.4205      	1140.5035      	1140.3857      	1140.4729      	1140.446       	1140.5441      	1140.5007      	1140.5587      	1140.508       	1140.5463      	1140.5012      	1140.5452      	1140.5317      	1140.5907      	1140.5366      	1140.5477      	1140.5515      	1140.5757      	1140.6141      	1140.5295      	1140.6154      	1140.5641      	1140.5688      	1140.5236      	1140.5421      	1140.4973      	1140.5715      	
1140.4464      	1140.3959      	1140.4205      	1140.3893      	1140.3649      	1140.427       	1140.4897      	1140.3798      	1140.4436      	1140.3925      	1140.3881      	1140.3746      	1140.4459      	1140.4026      	1140.468       	1140.4869      	1140.413       	1140.487       	1140.4338      	1140.5024      	1140.4392      	1140.4552      	1140.4984      	1140.4614      	1140.512       	1140.5669      	1140.5626      	1140.478       	1140.4943      	1140.6674      	1140.5393      	1140.572       	1140.5831      	1140.5865      	1140.6005      	1140.6102      	1140.5968      	1140.5642      	1140.5487      	1140.542       	1140.5288      	1140.5339      	1140.6062      	1140.5652      	1140.6017      	1140.5242      	1140.5488      	1140.6122      	1140.5583      	1140.6721      	1140.6342      	1140.6216      	1140.7115      	1140.6644      	1140.5994      	1140.7527      	1140.5958      	1140.7032      	1140.6788      	1140.6677      	1140.7147      	1140.7954      	1140.7766      	1140.74        	1140.8065      	1140.9247      	1140.7177      	1140.6143      	1140.8938      	1140.7596      	1140.8221      	1140.9019      	1140.7292      	1140.8933      	1140.8727      	1140.8419      	1140.8898      	1140.9374      	1140.9208      	1140.9         	1140.9978      	1140.9071      	1140.9825      	1140.8845      	1141.0084      	1140.9944      	1140.9155      	1140.9426      	1140.9886      	1141.065       	1140.9622      	1141.0012      	1140.9729      	1140.932       	1141.0217      	1140.9149      	1140.9559      	1140.9634      	1140.9335      	1140.8599      	
1140.9155      	1140.9092      	1140.9161      	1140.9286      	1140.8901      	1140.7482      	1140.9712      	1140.7863      	1140.8665      	1140.8788      	1140.8357      	1140.9146      	1140.8767      	1141.0201      	1140.8143      	1140.9042      	1140.971       	1140.8853      	1140.9816      	1140.8999      	1140.9464      	1140.9954      	1140.935       	1140.9033      	1140.9725      	1140.9739      	1140.967       	1141.0854      	1141.0139      	1140.9841      	1140.991       	1140.9901      	1140.9572      	1140.959       	1140.938       	1140.9941      	1140.9191      	1140.9784      	1141.0173      	1140.918       	1141.0011      	1140.9874      	1140.9353      	1141.0051      	1140.9744      	1141.0405      	1140.9885      	1140.9556      	1141.0073      	1141.0253      	1140.9816      	1141.01        	1141.1228      	1141.0614      	1141.0935      	1141.1191      	1140.9976      	1141.1293      	1141.1428      	1141.0432      	1141.1002      	1141.132       	1141.1238      	1141.129       	1141.066       	1141.2872      	1141.115       	1140.8287      	1141.4364      	1141.0516      	1141.1085      	1141.1445      	1141.2153      	1141.052       	1141.2112      	1141.229       	1141.1838      	1141.1111      	1141.3533      	1141.2037      	1141.257       	1141.2606      	1141.1984      	1141.386       	1141.0398      	1141.3757      	1141.3595      	1141.2599      	1141.2909      	1141.2886      	1141.3235      	1141.2596      	1141.2958      	1141.2759      	1141.0034      	1141.3602      	1141.2301      	1141.2596      	1141.227       	1141.0803      	
1141.0132      	1140.981       	1140.8352      	1140.6935      	1141.1727      	1140.9519      	1140.9109      	1140.978       	1140.9297      	1140.8887      	1141.0457      	1140.899       	1140.9313      	1140.9932      	1140.8191      	1141.0481      	1140.9248      	1140.9619      	1140.9966      	1140.8555      	1141.0377      	1141.0437      	1141.0087      	1140.9493      	1141.0227      	1140.9188      	1141.0411      	1140.9348      	1140.9364      	1141.047       	1140.9767      	1140.9896      	1140.9911      	1141.0197      	1140.9905      	1140.9547      	1141.0919      	1141.0175      	1140.9454      	1141.0197      	1140.9552      	1140.9735      	1141.0138      	1141.0542      	1140.9484      	1141.0675      	1141.0242      	1141.125       	1140.9393      	1141.1278      	1140.9097      	1140.9382      	1141.1659      	1141.1034      	1141.1022      	1141.0695      	1141.0513      	1141.0624      	1141.0972      	1141.0349      	1141.075       	1141.0226      	1141.1367      	1141.0574      	1141.0597      	1141.0833      	1140.9388      	1141.1646      	1140.9402      	1141.1362      	1141.0618      	1141.1292      	1141.076       	1141.0048      	1141.1262      	1141.1333      	1141.0872      	1141.1714      	1141.0677      	1141.0099      	1141.2864      	1141.0455      	1141.2825      	1141.2166      	1141.1671      	1141.2253      	1141.1919      	1141.1571      	1141.2532      	1141.1907      	1141.2114      	1141.1377      	1141.241       	1141.1692      	1141.2537      	1141.2224      	1141.0925      	1141.2349      	1141.103       	1141.1887      	
1140.8066      	1140.7405      	1140.6923      	1140.7498      	1140.7668      	1140.7434      	1140.691       	1140.6503      	1140.7284      	1140.7277      	1140.6759      	1140.6903      	1140.77        	1140.762       	1140.6819      	1140.7318      	1140.7173      	1140.7615      	1140.7087      	1140.6691      	1140.7784      	1140.7214      	1140.7224      	1140.7229      	1140.7351      	1140.7578      	1140.6385      	1140.7463      	1140.716       	1140.7593      	1140.707       	1140.7048      	1140.7157      	1140.6837      	1140.703       	1140.7605      	1140.7246      	1140.6516      	1140.7217      	1140.6857      	1140.7274      	1140.7557      	1140.6932      	1140.7968      	1140.6942      	1140.8301      	1140.8055      	1140.7509      	1140.7533      	1140.878       	1140.6917      	1140.7982      	1140.8846      	1140.8368      	1140.8276      	1140.8251      	1140.8921      	1140.7905      	1140.6653      	1141.0721      	1140.8214      	1140.8499      	1140.9506      	1140.8478      	1140.9327      	1140.8201      	1140.8982      	1140.8947      	1140.8671      	1140.9353      	1140.888       	1140.8958      	1140.8951      	1140.9468      	1140.8801      	1140.9026      	1140.8944      	1140.9261      	1140.9255      	1140.9393      	1140.9849      	1140.8201      	1140.9846      	1141.04        	1140.9415      	1140.9327      	1140.97        	1140.9413      	1140.953       	1140.9231      	1140.9558      	1140.964       	1140.9337      	1140.9275      	1140.9662      	1140.8674      	1140.9293      	1140.8806      	1140.8171      	1140.8687      	
1140.4354      	1140.4257      	1140.3523      	1140.4708      	1140.3494      	1140.4426      	1140.4934      	1140.5012      	1140.4349      	1140.4081      	1140.4608      	1140.5286      	1140.4924      	1140.4083      	1140.4547      	1140.4968      	1140.4154      	1140.5117      	1140.4354      	1140.525       	1140.503       	1140.468       	1140.4995      	1140.4714      	1140.4944      	1140.4735      	1140.5233      	1140.4237      	1140.4993      	1140.5564      	1140.489       	1140.4236      	1140.5453      	1140.4778      	1140.5398      	1140.422       	1140.5415      	1140.4666      	1140.5333      	1140.4999      	1140.489       	1140.4631      	1140.4735      	1140.7488      	1140.8384      	1140.566       	1140.5035      	1140.5548      	1140.5209      	1140.6477      	1140.4894      	1140.429       	1140.7566      	1140.5494      	1140.5056      	1140.7053      	1140.6934      	1140.6477      	1140.6765      	1140.6725      	1140.673       	1140.614       	1140.6952      	1140.6356      	1140.4683      	1140.6864      	1140.6716      	1140.66        	1140.6144      	1140.6538      	1140.6655      	1140.6609      	1140.7024      	1140.6857      	1140.6232      	1140.6827      	1140.7144      	1140.7065      	1140.6193      	1140.6908      	1140.6661      	1140.7888      	1140.7576      	1140.746       	1140.763       	1140.7039      	1140.6985      	1140.7546      	1140.8062      	1140.6785      	1140.6693      	1140.6846      	1140.6663      	1140.6095      	1140.6588      	1140.6458      	1140.4725      	1140.6772      	1140.4003      	1140.8647      	
1140.3442      	1140.3405      	1140.3013      	1140.1913      	1140.4044      	1140.4073      	1140.3333      	1140.3792      	1140.3245      	1140.3804      	1140.2772      	1140.3824      	1140.3333      	1140.3547      	1140.3375      	1140.3878      	1140.3414      	1140.387       	1140.3229      	1140.4423      	1140.422       	1140.3396      	1140.399       	1140.4147      	1140.4374      	1140.3905      	1140.4397      	1140.4062      	1140.3656      	1140.3639      	1140.378       	1140.4237      	1140.4042      	1140.451       	1140.4373      	1140.4094      	1140.3595      	1140.3845      	1140.4395      	1140.4187      	1140.3806      	1140.4283      	1140.411       	1140.3793      	1140.538       	1140.4946      	1140.4272      	1140.4763      	1140.4451      	1140.5077      	1140.4431      	1140.4948      	1140.4841      	1140.4298      	1140.5259      	1140.5219      	1140.5067      	1140.5377      	1140.4858      	1140.513       	1140.4658      	1140.5164      	1140.5476      	1140.4917      	1140.4927      	1140.5066      	1140.5817      	1140.521       	1140.4861      	1140.5762      	1140.5145      	1140.5961      	1140.5829      	1140.5857      	1140.5432      	1140.56        	1140.5751      	1140.6123      	1140.588       	1140.5944      	1140.6658      	1140.575       	1140.6564      	1140.6685      	1140.5608      	1140.6516      	1140.6143      	1140.6152      	1140.6226      	1140.619       	1140.5546      	1140.6101      	1140.431       	1140.6998      	1140.6272      	1140.6946      	1140.6415      	1140.5431      	1140.5146      	1140.488       	
1140.4342      	1140.3745      	1140.386       	1140.361       	1140.39        	1140.3625      	1140.4457      	1140.4148      	1140.4407      	1140.3958      	1140.4625      	1140.392       	1140.4448      	1140.4803      	1140.4612      	1140.4626      	1140.455       	1140.5009      	1140.5364      	1140.4941      	1140.496       	1140.5076      	1140.4753      	1140.5234      	1140.4908      	1140.5065      	1140.5828      	1140.5458      	1140.4712      	1140.5103      	1140.5409      	1140.499       	1140.535       	1140.4797      	1140.5748      	1140.5752      	1140.5175      	1140.4885      	1140.5679      	1140.507       	1140.5349      	1140.6484      	1140.5781      	1140.5494      	1140.62        	1140.6149      	1140.6548      	1140.5364      	1140.7169      	1140.6298      	1140.6877      	1140.6606      	1140.6552      	1140.7198      	1140.7479      	1140.6946      	1140.7462      	1140.7006      	1140.7385      	1140.7045      	1140.5791      	1140.7859      	1140.7244      	1140.7919      	1140.7339      	1140.6927      	1140.7401      	1140.7976      	1140.7313      	1140.7034      	1140.7754      	1140.7529      	1140.7305      	1140.692       	1140.7743      	1140.8042      	1140.7825      	1140.8174      	1140.803       	1140.7668      	1140.8505      	1140.8403      	1140.8527      	1140.7971      	1140.8472      	1140.8749      	1140.8273      	1140.8252      	1140.802       	1140.954       	1141.0634      	1141.0262      	1140.9479      	1140.8892      	1140.8152      	1140.8197      	1140.8358      	1140.785       	1140.7798      	1140.7644      	
1140.6476      	1140.6267      	1140.599       	1140.5114      	1140.6476      	1140.6954      	1140.6093      	1140.696       	1140.5663      	1140.719       	1140.6399      	1140.7029      	1140.6819      	1140.6447      	1140.7086      	1140.62        	1140.7052      	1140.7045      	1140.6958      	1140.7296      	1140.6741      	1140.7566      	1140.6755      	1140.7396      	1140.7307      	1140.6967      	1140.7351      	1140.7141      	1140.6711      	1140.742       	1140.653       	1140.6265      	1140.7314      	1140.6047      	1140.672       	1140.7457      	1140.6855      	1140.6847      	1140.6029      	1140.7511      	1140.6473      	1140.6779      	1140.6599      	1140.6344      	1140.6632      	1140.6578      	1140.6659      	1140.4753      	1140.8894      	1140.7556      	1140.6257      	1140.7029      	1140.7032      	1140.7533      	1140.7534      	1140.7477      	1140.8287      	1140.7008      	1140.8662      	1140.7849      	1140.7225      	1140.6686      	1140.878       	1140.7574      	1140.7426      	1140.8196      	1140.7893      	1140.7872      	1140.7792      	1140.8059      	1140.7913      	1140.7819      	1140.8228      	1140.8182      	1140.8439      	1140.8558      	1140.8396      	1140.8539      	1140.8246      	1140.8729      	1140.7864      	1140.8657      	1140.8838      	1140.8894      	1140.7794      	1140.822       	1140.9464      	1140.7053      	1140.9924      	1141.0464      	1140.8411      	1140.771       	1140.786       	1140.7681      	1140.7626      	1140.7623      	1140.6909      	1140.64        	1140.6334      	1140.6624      	
1140.5762      	1140.5487      	1140.5085      	1140.5494      	1140.5538      	1140.6276      	1140.491       	1140.5977      	1140.6223      	1140.6497      	1140.6589      	1140.6061      	1140.6912      	1140.6431      	1140.6841      	1140.6407      	1140.6228      	1140.7355      	1140.6538      	1140.6416      	1140.7172      	1140.6398      	1140.7064      	1140.6869      	1140.6754      	1140.6989      	1140.6819      	1140.67        	1140.6587      	1140.6395      	1140.7589      	1140.6245      	1140.6936      	1140.7512      	1140.7168      	1140.7361      	1140.6619      	1140.761       	1140.7355      	1140.6688      	1140.8164      	1140.7511      	1140.7316      	1140.7786      	1140.7717      	1140.8148      	1140.7991      	1140.753       	1140.814       	1140.8115      	1140.7606      	1140.8169      	1140.759       	1140.8608      	1140.8286      	1140.7971      	1140.812       	1140.9124      	1140.7922      	1140.9985      	1140.7834      	1140.7782      	1140.8429      	1140.7926      	1140.7256      	1140.8497      	1140.8019      	1140.8137      	1140.7786      	1140.8077      	1140.8062      	1140.8589      	1140.9194      	1140.8546      	1140.8448      	1140.9098      	1140.8584      	1140.7174      	1140.8245      	1140.8956      	1140.8243      	1140.8446      	1140.8214      	1140.8885      	1140.7678      	1140.711       	1140.9446      	1141.1812      	1141.0015      	1140.8713      	1140.75        	1140.8276      	1140.7024      	1140.8512      	1140.6656      	1140.7233      	1140.623       	1140.6958      	1140.689       	1140.7102      	
1140.558       	1140.5461      	1140.5565      	1140.5881      	1140.5774      	1140.4752      	1140.635       	1140.5066      	1140.5684      	1140.5319      	1140.531       	1140.5736      	1140.5712      	1140.6393      	1140.6555      	1140.6465      	1140.608       	1140.5708      	1140.5978      	1140.6665      	1140.6202      	1140.6371      	1140.5994      	1140.5848      	1140.6328      	1140.6038      	1140.6296      	1140.6504      	1140.5314      	1140.5999      	1140.6675      	1140.5017      	1140.6628      	1140.6016      	1140.5839      	1140.6357      	1140.6013      	1140.6624      	1140.6547      	1140.6741      	1140.6643      	1140.653       	1140.6825      	1140.6887      	1140.7253      	1140.7201      	1140.7273      	1140.7004      	1140.7452      	1140.6792      	1140.7673      	1140.7556      	1140.6732      	1140.7781      	1140.762       	1140.7357      	1140.6445      	1140.7765      	1140.7954      	1140.7826      	1140.658       	1140.754       	1140.7222      	1140.6844      	1140.7494      	1140.7654      	1140.7657      	1140.7107      	1140.7009      	1140.7815      	1140.7142      	1140.6912      	1140.7599      	1140.7186      	1140.7114      	1140.6633      	1140.8497      	1140.737       	1140.7241      	1140.7307      	1140.7017      	1140.7736      	1140.7411      	1140.729       	1140.8134      	1140.6993      	1141.0796      	1140.9402      	1140.7931      	1140.75        	1140.6606      	1140.6185      	1140.6272      	1140.4954      	1140.5769      	1140.6455      	1140.4598      	1140.4983      	1140.6394      	1140.4003      	
1140.5983      	1140.5541      	1140.4799      	1140.5624      	1140.6007      	1140.5308      	1140.5947      	1140.6042      	1140.6117      	1140.5963      	1140.6431      	1140.5626      	1140.6609      	1140.6412      	1140.6345      	1140.6233      	1140.6638      	1140.643       	1140.6458      	1140.6018      	1140.5208      	1140.636       	1140.6251      	1140.6166      	1140.6022      	1140.5933      	1140.6595      	1140.6672      	1140.6288      	1140.6691      	1140.5952      	1140.648       	1140.6042      	1140.67        	1140.6995      	1140.6161      	1140.6599      	1140.5924      	1140.5398      	1140.7357      	1140.7786      	1140.7031      	1140.7026      	1140.7554      	1140.7694      	1140.6979      	1140.7325      	1140.7241      	1140.788       	1140.7638      	1140.8334      	1140.749       	1140.7644      	1140.7759      	1140.7902      	1140.7529      	1140.7704      	1140.7689      	1140.7911      	1140.7759      	1140.7329      	1140.7534      	1140.829       	1140.6234      	1140.9025      	1140.8126      	1140.7468      	1140.7347      	1140.8191      	1140.7572      	1140.8237      	1140.8323      	1140.7944      	1140.8312      	1140.725       	1140.7494      	1140.78        	1140.7458      	1140.6979      	1140.8082      	1140.7635      	1140.7533      	1140.7205      	1140.7788      	1140.7853      	1140.7095      	1140.9896      	1140.913       	1140.8284      	1140.7722      	1140.6746      	1140.6274      	1140.6492      	1140.5997      	1140.6565      	1140.6193      	1140.4954      	1140.6785      	1140.5795      	1140.5494      	
1140.7109      	1140.6575      	1140.6047      	1140.6354      	1140.6871      	1140.7712      	1140.7937      	1140.7034      	1140.6965      	1140.8767      	1140.7229      	1140.718       	1140.8223      	1140.7843      	1140.8391      	1140.7737      	1140.8478      	1140.8312      	1140.762       	1140.8657      	1140.8325      	1140.7948      	1140.8748      	1140.729       	1140.823       	1140.7808      	1140.8357      	1140.7863      	1140.8228      	1140.8325      	1140.757       	1140.829       	1140.8386      	1140.7792      	1140.8468      	1140.8683      	1140.9363      	1140.8536      	1140.7955      	1140.7625      	1141.0206      	1140.8921      	1140.8322      	1140.8658      	1140.8687      	1140.9435      	1140.8379      	1140.9779      	1140.8782      	1140.9598      	1140.9075      	1140.9026      	1140.902       	1140.949       	1140.9303      	1140.9839      	1140.9414      	1140.9729      	1140.9875      	1140.9346      	1140.9462      	1140.9181      	1141.01        	1140.9078      	1140.9562      	1140.9161      	1140.9562      	1140.9218      	1140.9536      	1140.9285      	1140.9982      	1140.9076      	1140.9014      	1141.0043      	1140.9476      	1141.0144      	1140.9309      	1140.9393      	1140.9446      	1140.9517      	1140.9226      	1140.9244      	1140.9304      	1140.8916      	1140.9731      	1140.9402      	1141.2155      	1141.1488      	1140.9802      	1141.0549      	1140.9155      	1140.9039      	1140.7748      	1140.8259      	1140.8423      	1140.8046      	1140.8295      	1140.7306      	1140.5947      	1141.0044      	
1140.9717      	1140.9854      	1140.9928      	1140.9833      	1141.0125      	1141.0222      	1140.9337      	1141.1095      	1140.9823      	1141.0577      	1141.0808      	1141.0304      	1141.0834      	1141.096       	1141.0583      	1141.1135      	1141.1161      	1141.0364      	1141.1039      	1141.0593      	1141.1199      	1141.1154      	1141.0487      	1141.1664      	1141.0842      	1141.134       	1141.0717      	1141.1161      	1141.1824      	1141.1083      	1141.1653      	1141.177       	1141.0956      	1141.128       	1141.1652      	1141.148       	1141.1082      	1141.2234      	1141.2219      	1141.1         	1141.1803      	1141.2224      	1141.2134      	1141.2515      	1141.1533      	1141.2147      	1141.245       	1141.1967      	1141.2443      	1141.2114      	1141.2218      	1141.211       	1141.273       	1141.2427      	1141.2433      	1141.2656      	1141.275       	1141.266       	1141.2242      	1141.2548      	1141.23        	1141.1597      	1141.234       	1141.167       	1141.2487      	1141.2198      	1141.1892      	1141.201       	1141.2751      	1141.2117      	1141.1697      	1141.2377      	1141.1809      	1141.2905      	1141.1779      	1141.2202      	1141.2         	1141.1294      	1141.166       	1141.1681      	1141.1836      	1141.0808      	1141.135       	1141.1431      	1141.0914      	1141.0791      	1141.3735      	1141.2114      	1141.2527      	1141.2147      	1141.0627      	1141.0646      	1141.034       	1141.0029      	1140.9719      	1140.9612      	1141.0289      	1141.1438      	1140.9794      	1140.9581      	
1141.3397      	1141.3307      	1141.3207      	1141.31        	1141.3302      	1141.3783      	1141.3245      	1141.3643      	1141.4038      	1141.3732      	1141.3491      	1141.4213      	1141.4003      	1141.3833      	1141.4121      	1141.4384      	1141.3263      	1141.4777      	1141.3738      	1141.4327      	1141.4233      	1141.3751      	1141.4489      	1141.4285      	1141.3663      	1141.3804      	1141.3605      	1141.429       	1141.363       	1141.5167      	1141.4532      	1141.3933      	1141.4122      	1141.3787      	1141.4683      	1141.4493      	1141.4436      	1141.4318      	1141.4642      	1141.4061      	1141.5084      	1141.4855      	1141.4426      	1141.4946      	1141.4767      	1141.4695      	1141.4808      	1141.4813      	1141.4915      	1141.4895      	1141.5001      	1141.4598      	1141.5714      	1141.4714      	1141.5518      	1141.5212      	1141.5076      	1141.4543      	1141.4498      	1141.4695      	1141.5139      	1141.4268      	1141.4656      	1141.4728      	1141.3962      	1141.5542      	1141.4556      	1141.5133      	1141.4232      	1141.491       	1141.4906      	1141.4036      	1141.5403      	1141.4752      	1141.4634      	1141.4855      	1141.4757      	1141.497       	1141.3357      	1141.5446      	1141.4559      	1141.4268      	1141.4106      	1141.3724      	1141.4684      	1141.4501      	1141.5283      	1141.6985      	1141.5088      	1141.5259      	1141.507       	1141.3644      	1141.304       	1141.2856      	1141.3514      	1141.2665      	1141.302       	1141.2104      	1141.4181      	1141.092       	
1141.5161      	1141.534       	1141.535       	1141.5137      	1141.6189      	1141.5717      	1141.5587      	1141.5795      	1141.6991      	1141.675       	1141.6165      	1141.6345      	1141.6753      	1141.5892      	1141.685       	1141.5752      	1141.6655      	1141.6727      	1141.6892      	1141.6459      	1141.6831      	1141.6472      	1141.6757      	1141.5691      	1141.6536      	1141.6157      	1141.6683      	1141.659       	1141.6519      	1141.5743      	1141.7063      	1141.7098      	1141.6353      	1141.6667      	1141.657       	1141.7032      	1141.7013      	1141.6636      	1141.7032      	1141.6415      	1141.6847      	1141.6984      	1141.6656      	1141.7372      	1141.6655      	1141.6975      	1141.7203      	1141.6777      	1141.7395      	1141.7333      	1141.7263      	1141.685       	1141.7347      	1141.7349      	1141.7976      	1141.7753      	1141.6545      	1141.9774      	1141.9333      	1141.8403      	1141.6482      	1141.6095      	1141.629       	1141.2329      	1141.7443      	1141.6305      	1141.9476      	1141.765       	1141.7277      	1141.7355      	1141.7788      	1141.7441      	1141.7275      	1141.7172      	1141.7949      	1141.7391      	1141.7507      	1141.8037      	1141.6716      	1141.8011      	1141.7205      	1141.7205      	1141.7435      	1141.701       	1141.759       	1141.7583      	1141.751       	1142.0546      	1141.9683      	1141.7794      	1141.8164      	1141.7295      	1141.6322      	1141.5317      	1141.62        	1141.7169      	1141.7877      	1141.589       	1141.7013      	1141.6337      	
1141.9485      	1141.9032      	1141.8164      	1141.8419      	1141.9731      	1142.0433      	1141.9813      	1141.9653      	1142.0681      	1141.9943      	1142.05        	1142.0295      	1142.0344      	1142.086       	1142.0038      	1142.0144      	1142.0721      	1142.0272      	1141.9923      	1142.0868      	1142.0226      	1142.0189      	1141.9913      	1142.0468      	1141.9917      	1142.0039      	1142.0256      	1142.032       	1142.0048      	1142.083       	1142.07        	1142.0587      	1142.0779      	1142.0679      	1142.0933      	1142.0913      	1142.1204      	1142.0837      	1142.1375      	1142.0848      	1142.1263      	1142.1954      	1142.0981      	1142.1038      	1142.012       	1142.1475      	1142.1401      	1142.1425      	1142.1473      	1142.1079      	1142.1661      	1142.1473      	1142.1931      	1142.3025      	1142.2711      	1142.2684      	1142.263       	1142.1616      	1142.2173      	1142.2087      	1142.1223      	1142.0293      	1141.9537      	1141.6193      	1142.028       	1141.968       	1141.9324      	1142.2717      	1142.1271      	1142.0096      	1142.1581      	1142.1333      	1142.0457      	1142.131       	1142.137       	1142.0823      	1142.1382      	1142.1473      	1142.1656      	1142.0249      	1142.1398      	1142.1307      	1142.1427      	1142.0535      	1142.1401      	1142.1714      	1142.1403      	1142.3173      	1142.3231      	1142.283       	1142.2056      	1142.1444      	1142.0867      	1142.0769      	1142.0632      	1142.1024      	1142.1444      	1142.0579      	1142.0834      	1142.1044      	
1142.3827      	1142.3735      	1142.304       	1142.4116      	1142.4578      	1142.3689      	1142.5238      	1142.4669      	1142.412       	1142.4412      	1142.4701      	1142.496       	1142.3967      	1142.5006      	1142.4728      	1142.4579      	1142.4854      	1142.5054      	1142.4773      	1142.5211      	1142.4849      	1142.532       	1142.5687      	1142.4319      	1142.5311      	1142.4681      	1142.4907      	1142.4509      	1142.5095      	1142.4467      	1142.5337      	1142.4778      	1142.4882      	1142.5099      	1142.4943      	1142.4896      	1142.5767      	1142.524       	1142.5552      	1142.476       	1142.35        	1142.6909      	1142.517       	1142.4595      	1142.6931      	1142.5496      	1142.5988      	1142.5764      	1142.5148      	1142.5544      	1142.7747      	1142.6788      	1142.6655      	1142.548       	1142.6261      	1142.5272      	1142.5115      	1142.4988      	1142.5254      	1142.5028      	1142.3905      	1142.404       	1142.2253      	1142.2065      	1142.1239      	1142.4841      	1142.4915      	1142.4338      	1142.5015      	1142.4874      	1142.5287      	1142.4829      	1142.5295      	1142.4794      	1142.4049      	1142.5082      	1142.5629      	1142.4764      	1142.5427      	1142.4485      	1142.4786      	1142.478       	1142.47        	1142.4493      	1142.4325      	1142.4374      	1142.4966      	1142.6285      	1142.7599      	1142.6086      	1142.5704      	1142.4918      	1142.4407      	1142.4923      	1142.4335      	1142.3925      	1142.4435      	1142.3816      	1142.4624      	1142.5183      	
1142.629       	1142.5999      	1142.5837      	1142.6284      	1142.6687      	1142.6334      	1142.6467      	1142.6262      	1142.5809      	1142.6493      	1142.6882      	1142.5726      	1142.6395      	1142.5765      	1142.7805      	1142.5675      	1142.6519      	1142.6576      	1142.6467      	1142.7072      	1142.5819      	1142.6372      	1142.6041      	1142.5519      	1142.7094      	1142.5948      	1142.6028      	1142.7987      	1142.6785      	1142.7651      	1142.6372      	1142.6777      	1142.7394      	1142.681       	1142.7042      	1142.7433      	1142.7107      	1142.7178      	1142.7704      	1142.6482      	1142.6808      	1142.7378      	1142.584       	1142.7799      	1142.8132      	1142.8093      	1142.8583      	1142.8046      	1142.7288      	1142.8225      	1142.7416      	1142.6882      	1142.7185      	1142.6603      	1142.6665      	1142.6868      	1142.6417      	1142.674       	1142.5193      	1142.7081      	1142.6552      	1142.5195      	1142.394       	1142.3363      	1142.3381      	1142.2977      	1142.828       	1142.5669      	1142.6285      	1142.6038      	1142.5345      	1142.6866      	1142.6716      	1142.5948      	1142.6256      	1142.5874      	1142.6117      	1142.6298      	1142.5847      	1142.5538      	1142.5638      	1142.52        	1142.5673      	1142.5946      	1142.4366      	1142.5968      	1142.5409      	1142.7107      	1142.7899      	1142.6924      	1142.6382      	1142.6254      	1142.4241      	1142.4586      	1142.4908      	1142.5515      	1142.4694      	1142.5286      	1142.4579      	1142.4882      	
1142.3224      	1142.324       	1142.2147      	1142.118       	1142.4524      	1142.3381      	1142.3301      	1142.3546      	1142.3667      	1142.3647      	1142.3657      	1142.3455      	1142.2458      	1142.3307      	1142.3279      	1142.3203      	1142.2703      	1142.2609      	1142.1896      	1142.3069      	1142.2133      	1142.2516      	1142.2551      	1142.2714      	1142.2747      	1142.2919      	1142.3168      	1142.2684      	1142.1896      	1142.3455      	1142.245       	1142.2096      	1142.1534      	1142.404       	1142.1809      	1142.268       	1142.2628      	1142.3127      	1142.2675      	1142.1501      	1142.2928      	1142.4491      	1142.4298      	1142.3538      	1142.2761      	1142.2986      	1142.2993      	1142.2698      	1142.2579      	1142.3013      	1142.1942      	1142.2661      	1142.1151      	1142.1317      	1142.1434      	1142.2089      	1142.1434      	1142.1361      	1142.1838      	1142.0364      	1142.148       	1142.0367      	1141.9706      	1141.5962      	1141.904       	1141.5614      	1142.1699      	1142.137       	1142.0977      	1142.0487      	1142.0724      	1142.0059      	1142.0347      	1142.0128      	1142.1074      	1141.9836      	1141.9595      	1141.9901      	1142.048       	1142.0106      	1141.8032      	1141.9348      	1141.983       	1141.968       	1141.9122      	1141.9236      	1141.9867      	1141.8684      	1142.2126      	1142.0858      	1142.0315      	1142.0686      	1141.8843      	1141.9172      	1141.9098      	1141.7689      	1141.909       	1141.8749      	1141.8741      	1141.8414      	
1141.3417      	1141.3368      	1141.2471      	1141.1304      	1141.3518      	1141.5314      	1141.4749      	1141.3485      	1141.3875      	1141.4086      	1141.4056      	1141.4125      	1141.3616      	1141.3748      	1141.3794      	1141.4011      	1141.4236      	1141.3263      	1141.3312      	1141.3442      	1141.4169      	1141.2871      	1141.3295      	1141.3145      	1141.3209      	1141.4231      	1141.3127      	1141.3306      	1141.3313      	1141.3693      	1141.3859      	1141.3302      	1141.3639      	1141.2816      	1141.4053      	1141.5358      	1141.5605      	1141.4583      	1141.4993      	1141.5194      	1141.4865      	1141.4268      	1141.3876      	1141.3293      	1141.3585      	1141.2762      	1141.2999      	1141.199       	1141.3574      	1141.3032      	1141.1998      	1141.2764      	1141.1667      	1141.1584      	1141.2421      	1141.1967      	1141.2087      	1141.1519      	1141.1777      	1141.1938      	1141.2147      	1141.1718      	1141.0659      	1140.9407      	1140.6818      	1140.7727      	1141.283       	1141.2332      	1141.0814      	1141.0956      	1141.1412      	1141.116       	1141.0593      	1141.1478      	1141.0625      	1141.0881      	1141.064       	1141.05        	1141.0183      	1141.0708      	1140.9846      	1141.0396      	1141.0006      	1140.9923      	1141.0221      	1141.0029      	1140.9395      	1141.0237      	1141.1353      	1141.2208      	1141.1151      	1141.0851      	1141.0099      	1140.9369      	1140.9296      	1140.8699      	1140.964       	1140.9247      	1140.8258      	1140.9445      	
1140.9188      	1140.7667      	1140.7179      	1140.786       	1140.6241      	1140.7852      	1140.9574      	1140.8159      	1140.8784      	1140.7352      	1140.8639      	1140.8079      	1140.8347      	1140.7538      	1140.7462      	1140.784       	1140.7454      	1140.6841      	1140.6757      	1140.7135      	1140.7744      	1140.7969      	1140.7863      	1140.7433      	1140.8468      	1140.7764      	1140.7332      	1140.743       	1140.7747      	1140.8214      	1140.825       	1140.9205      	1140.9237      	1141.0021      	1140.9817      	1140.904       	1140.938       	1140.8412      	1140.8771      	1140.8446      	1140.796       	1140.8394      	1140.7749      	1140.755       	1140.825       	1140.6948      	1140.762       	1140.7122      	1140.716       	1140.7726      	1140.7196      	1140.7542      	1140.6868      	1140.6793      	1140.6431      	1140.7312      	1140.732       	1140.7151      	1140.6022      	1140.7397      	1140.6848      	1140.6643      	1140.5996      	1140.52        	1140.0408      	1140.0974      	1140.8112      	1140.6542      	1140.6458      	1140.5673      	1140.6487      	1140.539       	1140.6603      	1140.6202      	1140.6982      	1140.5962      	1140.5809      	1140.5928      	1140.5968      	1140.5798      	1140.5278      	1140.5884      	1140.5002      	1140.5781      	1140.5471      	1140.496       	1140.6772      	1140.5474      	1140.6837      	1140.8335      	1140.754       	1140.6995      	1140.6249      	1140.5764      	1140.5686      	1140.5583      	1140.5006      	1140.5847      	1140.5706      	1140.6047      	
1140.6202      	1140.599       	1140.6349      	1140.5532      	1140.5707      	1140.5651      	1140.6411      	1140.5717      	1140.6268      	1140.6014      	1140.6829      	1140.6508      	1140.6292      	1140.5837      	1140.6128      	1140.6257      	1140.5623      	1140.62        	1140.6161      	1140.5995      	1140.587       	1140.5936      	1140.6316      	1140.6562      	1140.5642      	1140.6514      	1140.6208      	1140.5796      	1140.6345      	1140.9495      	1140.8433      	1140.7163      	1140.7446      	1140.7711      	1140.6755      	1140.7312      	1140.6686      	1140.6653      	1140.6794      	1140.6896      	1140.6556      	1140.6375      	1140.6483      	1140.5343      	1140.5825      	1140.6895      	1140.5907      	1140.5608      	1140.6165      	1140.4814      	1140.6134      	1140.6151      	1140.5767      	1140.562       	1140.5618      	1140.5555      	1140.6362      	1140.5774      	1140.6036      	1140.5571      	1140.5286      	1140.5251      	1140.4995      	1140.2346      	1140.2698      	1140.0131      	1140.4573      	1140.5934      	1140.542       	1140.4899      	1140.6356      	1140.4922      	1140.4387      	1140.419       	1140.5009      	1140.4988      	1140.4331      	1140.481       	1140.4739      	1140.4717      	1140.4292      	1140.435       	1140.5111      	1140.3586      	1140.4545      	1140.489       	1140.4471      	1140.4462      	1140.4158      	1140.7947      	1140.6714      	1140.5806      	1140.5494      	1140.4767      	1140.4141      	1140.4885      	1140.412       	1140.4514      	1140.5348      	1140.4813      	
1140.8059      	1140.7638      	1140.7474      	1140.7922      	1140.7838      	1140.7384      	1140.8708      	1140.7747      	1140.7732      	1140.7972      	1140.8384      	1140.7561      	1140.815       	1140.8079      	1140.9005      	1140.881       	1140.8323      	1140.8374      	1140.7935      	1140.8035      	1140.8784      	1140.777       	1140.8663      	1140.8124      	1140.8431      	1140.8645      	1140.8107      	1141.0721      	1141.2086      	1141.1326      	1141.0146      	1140.9341      	1140.9854      	1140.9658      	1140.9651      	1140.9568      	1141.0331      	1140.844       	1140.9673      	1140.925       	1140.8263      	1140.9026      	1140.8575      	1140.8859      	1140.9237      	1140.8484      	1140.8794      	1140.8811      	1140.8043      	1140.8369      	1140.803       	1140.8986      	1140.8142      	1140.8586      	1140.8187      	1140.8124      	1140.8795      	1140.8118      	1140.8267      	1140.8961      	1140.8928      	1140.7609      	1140.8217      	1140.6432      	1140.5577      	1140.4935      	1140.483       	1141.0363      	1140.886       	1140.8069      	1141.0476      	1140.6923      	1140.8517      	1140.8014      	1140.8679      	1140.8633      	1140.8256      	1140.871       	1140.7838      	1140.8481      	1140.7849      	1140.806       	1140.7743      	1140.7834      	1140.7781      	1140.8577      	1140.7654      	1140.839       	1140.7786      	1141.1387      	1141.0591      	1140.9855      	1140.9832      	1140.8735      	1140.9006      	1140.9104      	1140.8046      	1140.9366      	1140.8811      	1140.8962      	
1141.2533      	1141.2557      	1141.2435      	1141.2622      	1141.3003      	1141.2129      	1141.3706      	1141.3251      	1141.3373      	1141.2838      	1141.2821      	1141.359       	1141.2399      	1141.3026      	1141.3047      	1141.3491      	1141.2358      	1141.3181      	1141.1542      	1141.216       	1141.2866      	1141.2754      	1141.3651      	1141.2466      	1141.2117      	1141.3296      	1141.5438      	1141.7446      	1141.549       	1141.4908      	1141.427       	1141.4247      	1141.413       	1141.356       	1141.3058      	1141.2687      	1141.4149      	1141.3805      	1141.284       	1141.3157      	1141.3708      	1141.349       	1141.2208      	1141.363       	1141.325       	1141.3184      	1141.281       	1141.2812      	1141.2637      	1141.2385      	1141.2843      	1141.2997      	1141.1829      	1141.2384      	1141.2821      	1141.2781      	1141.2286      	1141.3391      	1141.3137      	1141.2533      	1141.3116      	1141.192       	1141.3413      	1141.1873      	1141.0448      	1140.6696      	1140.9442      	1141.4016      	1141.3112      	1141.2048      	1141.3206      	1141.1995      	1141.2657      	1141.2719      	1141.2716      	1141.2526      	1141.2446      	1141.2858      	1141.2687      	1141.1067      	1141.2797      	1141.1791      	1141.1705      	1141.2072      	1141.2329      	1141.2009      	1141.159       	1141.2517      	1141.2625      	1141.4906      	1141.5522      	1141.438       	1141.4076      	1141.4143      	1141.2672      	1141.2205      	1141.3142      	1141.312       	1141.4225      	1141.3522      	
1141.6017      	1141.5658      	1141.5325      	1141.5725      	1141.6255      	1141.6157      	1141.5958      	1141.487       	1141.655       	1141.6125      	1141.5874      	1141.6313      	1141.5991      	1141.52        	1141.6329      	1141.5945      	1141.4917      	1141.4713      	1141.6823      	1141.6233      	1141.6581      	1141.5685      	1141.5966      	1141.5604      	1141.7318      	1141.6335      	1141.9562      	1141.8336      	1141.7615      	1141.7325      	1141.6156      	1141.6173      	1141.6455      	1141.579       	1141.6167      	1141.6747      	1141.6082      	1141.636       	1141.6091      	1141.5126      	1141.6102      	1141.5426      	1141.5958      	1141.5696      	1141.4739      	1141.5103      	1141.5404      	1141.5491      	1141.49        	1141.5135      	1141.4493      	1141.5015      	1141.462       	1141.5728      	1141.4154      	1141.4696      	1141.4292      	1141.4503      	1141.5072      	1141.4137      	1141.4979      	1141.4692      	1141.4507      	1141.3892      	1141.2051      	1141.0944      	1140.9288      	1141.5118      	1141.5382      	1141.3624      	1141.4982      	1141.4004      	1141.4055      	1141.3871      	1141.4741      	1141.3245      	1141.4097      	1141.4845      	1141.4142      	1141.41        	1141.3887      	1141.4159      	1141.4224      	1141.4321      	1141.4237      	1141.3593      	1141.446       	1141.3788      	1141.4191      	1141.5884      	1141.74        	1141.6521      	1141.6138      	1141.5533      	1141.5197      	1141.5085      	1141.5688      	1141.5037      	1141.5549      	1141.6229      	
1141.5419      	1141.5349      	1141.5894      	1141.6124      	1141.5403      	1141.6196      	1141.5121      	1141.5215      	1141.5951      	1141.6655      	1141.6238      	1141.5647      	1141.5269      	1141.5962      	1141.5315      	1141.5735      	1141.6194      	1141.5232      	1141.4717      	1141.6235      	1141.5413      	1141.5565      	1141.5077      	1141.5686      	1141.602       	1141.5708      	1141.961       	1141.807       	1141.6893      	1141.6775      	1141.6288      	1141.5758      	1141.5737      	1141.6472      	1141.4918      	1141.5854      	1141.5233      	1141.5657      	1141.521       	1141.5162      	1141.5109      	1141.4663      	1141.4568      	1141.5748      	1141.4087      	1141.4097      	1141.4692      	1141.3627      	1141.3787      	1141.577       	1141.4597      	1141.4707      	1141.4558      	1141.4448      	1141.4257      	1141.5056      	1141.4336      	1141.3976      	1141.4098      	1141.4238      	1141.52        	1141.3767      	1141.4241      	1141.4181      	1141.2931      	1141.0907      	1140.8092      	1141.3517      	1141.4471      	1141.4565      	1141.4133      	1141.4524      	1141.3462      	1141.2993      	1141.4556      	1141.4509      	1141.3346      	1141.3674      	1141.3768      	1141.3674      	1141.3464      	1141.3141      	1141.3931      	1141.3292      	1141.2977      	1141.3752      	1141.3185      	1141.3301      	1141.3268      	1141.3387      	1141.7604      	1141.6344      	1141.5704      	1141.5085      	1141.4972      	1141.4104      	1141.4724      	1141.4146      	1141.5035      	1141.5715      	
1141.4423      	1141.4141      	1141.4456      	1141.4625      	1141.408       	1141.4517      	1141.5023      	1141.386       	1141.4691      	1141.4965      	1141.426       	1141.468       	1141.4259      	1141.4113      	1141.4216      	1141.3915      	1141.4174      	1141.3794      	1141.4033      	1141.3813      	1141.3586      	1141.424       	1141.3196      	1141.503       	1141.3739      	1141.4408      	1141.7478      	1141.6257      	1141.5862      	1141.5386      	1141.4321      	1141.3629      	1141.3698      	1141.3733      	1141.3899      	1141.4004      	1141.3016      	1141.0333      	1140.8849      	1141.2991      	1141.3239      	1141.2932      	1141.3875      	1141.3472      	1141.3853      	1141.3325      	1141.3209      	1141.3195      	1141.2753      	1141.3582      	1141.303       	1141.2886      	1141.3113      	1141.2849      	1141.3134      	1141.3032      	1141.2644      	1141.2935      	1141.3723      	1141.3214      	1141.2145      	1141.3853      	1141.3114      	1141.2706      	1141.205       	1140.9874      	1140.8383      	1140.9303      	1141.5         	1141.3524      	1141.284       	1141.2932      	1141.2697      	1141.2898      	1141.3112      	1141.2335      	1141.2305      	1141.3236      	1141.2134      	1141.3212      	1141.2731      	1141.2009      	1141.2832      	1141.2208      	1141.2657      	1141.3235      	1141.3069      	1141.3342      	1141.3322      	1141.2969      	1141.6368      	1141.5256      	1141.4462      	1141.4304      	1141.3757      	1141.3608      	1141.3644      	1141.3566      	1141.4446      	1141.4369      	
1141.6548      	1141.6046      	1141.5613      	1141.6587      	1141.5536      	1141.5151      	1141.6893      	1141.6698      	1141.6241      	1141.5947      	1141.5743      	1141.6685      	1141.6648      	1141.5151      	1141.6155      	1141.6526      	1141.6143      	1141.6267      	1141.5795      	1141.602       	1141.5571      	1141.5061      	1141.6788      	1141.5165      	1141.6005      	1141.6144      	1141.8368      	1141.8381      	1141.7261      	1141.6681      	1141.7257      	1141.6337      	1141.6085      	1141.6038      	1141.6223      	1141.5618      	1141.6072      	1141.5311      	1141.5366      	1141.5718      	1141.6099      	1141.4972      	1141.5161      	1141.4663      	1141.5797      	1141.4325      	1141.5459      	1141.4746      	1141.465       	1141.4729      	1141.471       	1141.4374      	1141.4302      	1141.51        	1141.4789      	1141.3586      	1141.4963      	1141.483       	1141.4481      	1141.5297      	1141.4133      	1141.3535      	1141.5587      	1141.4009      	1141.5088      	1141.0901      	1141.078       	1141.16        	1141.5087      	1141.4147      	1141.4044      	1141.4972      	1141.366       	1141.4077      	1141.4346      	1141.4021      	1141.3351      	1141.455       	1141.4519      	1141.389       	1141.4413      	1141.3817      	1141.3651      	1141.4543      	1141.3556      	1141.3855      	1141.4027      	1141.3854      	1141.4713      	1141.402       	1141.7485      	1141.7024      	1141.5912      	1141.6394      	1141.5972      	1141.5958      	1141.4579      	1141.4252      	1141.5868      	1141.5852      	
1141.5995      	1141.4021      	1141.493       	1141.7268      	1141.629       	1141.6796      	1141.6519      	1141.6423      	1141.6082      	1141.5798      	1141.5182      	1141.5204      	1141.6604      	1141.5536      	1141.603       	1141.5522      	1141.5426      	1141.5795      	1141.5972      	1141.5223      	1141.4296      	1141.551       	1141.5314      	1141.6501      	1141.5259      	1141.531       	1141.7463      	1141.9207      	1141.7009      	1141.6598      	1141.635       	1141.5072      	1141.5491      	1141.5414      	1141.5695      	1141.5591      	1141.4591      	1141.4844      	1141.5261      	1141.4689      	1141.3058      	1141.4572      	1141.5063      	1141.4373      	1141.382       	1141.4948      	1141.402       	1141.3733      	1141.425       	1141.4226      	1141.4728      	1141.3801      	1141.4526      	1141.4137      	1141.4517      	1141.436       	1141.522       	1141.427       	1141.3824      	1141.4384      	1141.4751      	1141.4987      	1141.3235      	1141.2822      	1141.3282      	1141.3224      	1140.9608      	1141.1692      	1141.2214      	1141.461       	1141.4065      	1141.401       	1141.3312      	1141.3309      	1141.4034      	1141.3197      	1141.3497      	1141.3335      	1141.3308      	1141.3262      	1141.3147      	1141.2694      	1141.4155      	1141.2509      	1141.3555      	1141.3649      	1141.2969      	1141.3125      	1141.4197      	1141.3518      	1141.6918      	1141.7535      	1141.6117      	1141.5408      	1141.5658      	1141.5673      	1141.4718      	1141.5073      	1141.5085      	1141.5038      	
1141.5057      	1141.3276      	1141.0138      	1140.6749      	1141.1964      	1141.5226      	1141.5416      	1141.4929      	1141.4176      	1141.4243      	1141.495       	1141.3694      	1141.4934      	1141.3622      	1141.4158      	1141.4376      	1141.4423      	1141.313       	1141.405       	1141.4513      	1141.4513      	1141.447       	1141.377       	1141.3596      	1141.5085      	1141.4025      	1141.449       	1141.8134      	1141.6085      	1141.554       	1141.4973      	1141.4482      	1141.429       	1141.3016      	1141.4657      	1141.355       	1141.1835      	1141.4656      	1141.3759      	1141.4003      	1141.2413      	1141.1946      	1141.3499      	1141.3892      	1141.3442      	1141.314       	1141.2981      	1141.2937      	1141.371       	1141.364       	1141.3508      	1141.299       	1141.3467      	1141.3511      	1141.3167      	1141.3417      	1141.3496      	1141.3751      	1141.4019      	1141.3439      	1141.3894      	1141.3329      	1141.2241      	1141.3662      	1141.2725      	1141.1814      	1140.9856      	1141.0297      	1141.1493      	1141.384       	1141.2532      	1141.2941      	1141.296       	1141.3         	1141.243       	1141.2579      	1141.2695      	1141.2825      	1141.3184      	1141.2804      	1141.2794      	1141.2933      	1141.3604      	1141.3754      	1141.3221      	1141.3302      	1141.2821      	1141.3632      	1141.3882      	1141.3921      	1141.5358      	1141.659       	1141.6183      	1141.5159      	1141.5198      	1141.4604      	1141.4738      	1141.4727      	1141.4624      	1141.4523      	
1141.5748      	1141.4005      	1141.1765      	1140.8982      	1140.8915      	1141.7007      	1141.4564      	1141.539       	1141.6833      	1141.5157      	1141.5355      	1141.5194      	1141.4926      	1141.5472      	1141.4832      	1141.488       	1141.4784      	1141.492       	1141.5099      	1141.4923      	1141.4923      	1141.4907      	1141.5374      	1141.5026      	1141.4963      	1141.51        	1141.5347      	1141.7544      	1141.8212      	1141.6251      	1141.6235      	1141.5519      	1141.4911      	1141.5009      	1141.4606      	1141.5282      	1141.4353      	1141.4523      	1141.4563      	1141.4274      	1141.4927      	1141.3973      	1141.4401      	1141.4493      	1141.4514      	1141.4087      	1141.3765      	1141.4412      	1141.4889      	1141.3527      	1141.4749      	1141.4873      	1141.4757      	1141.4044      	1141.5615      	1141.5339      	1141.371       	1141.5938      	1141.4847      	1141.5482      	1141.52        	1141.4061      	1141.553       	1141.5623      	1141.4437      	1141.1848      	1141.3026      	1141.1799      	1141.0944      	1141.6792      	1141.5624      	1141.4855      	1141.357       	1141.578       	1141.438       	1141.4187      	1141.5161      	1141.4011      	1141.4943      	1141.4419      	1141.5343      	1141.5278      	1141.5033      	1141.4078      	1141.6162      	1141.5234      	1141.4542      	1141.5464      	1141.5333      	1141.5073      	1141.5486      	1141.9169      	1141.8314      	1141.7548      	1141.7996      	1141.7136      	1141.6172      	1141.6874      	1141.6534      	1141.6906      	
1141.6405      	1141.5118      	1141.3611      	1141.0012      	1141.0552      	1141.7338      	1141.5396      	1141.536       	1141.6261      	1141.6307      	1141.6193      	1141.5441      	1141.5651      	1141.5985      	1141.5593      	1141.571       	1141.5735      	1141.5975      	1141.6182      	1141.5728      	1141.617       	1141.5405      	1141.5757      	1141.5591      	1141.548       	1141.5753      	1141.5347      	1141.7313      	1141.9038      	1141.7098      	1141.6151      	1141.6332      	1141.5168      	1141.5868      	1141.5721      	1141.4446      	1141.5709      	1141.2969      	1141.5693      	1141.4644      	1141.5024      	1141.426       	1141.5125      	1141.4812      	1141.4666      	1141.4335      	1141.4725      	1141.4777      	1141.4596      	1141.4755      	1141.4779      	1141.5142      	1141.4738      	1141.5048      	1141.4543      	1141.5317      	1141.4137      	1141.4115      	1141.5325      	1141.4058      	1141.5444      	1141.5037      	1141.4019      	1141.4774      	1141.5663      	1141.4377      	1141.2979      	1140.9233      	1141.1775      	1141.6333      	1141.3883      	1141.41        	1141.4799      	1141.3735      	1141.3853      	1141.4341      	1141.4524      	1141.438       	1141.4802      	1141.4886      	1141.4847      	1141.4219      	1141.4292      	1141.5428      	1141.48        	1141.4794      	1141.4504      	1141.5511      	1141.5593      	1141.4865      	1141.4701      	1141.9602      	1141.8146      	1141.7378      	1141.8007      	1141.6398      	1141.6196      	1141.6555      	1141.6536      	1141.6195      	
1141.7603      	1141.4758      	1141.3041      	1141.2408      	1141.2772      	1141.5269      	1141.951       	1141.6503      	1141.7819      	1141.8252      	1141.702       	1141.7814      	1141.7075      	1141.7465      	1141.7911      	1141.7433      	1141.7458      	1141.69        	1141.8058      	1141.7505      	1141.7095      	1141.6464      	1141.8484      	1141.6884      	1141.7717      	1141.6377      	1141.7554      	1141.7288      	1142.0559      	1142.0035      	1141.842       	1141.8346      	1141.7434      	1141.7102      	1141.7861      	1141.5795      	1141.5845      	1141.7563      	1141.6813      	1141.7365      	1141.6633      	1141.7145      	1141.6743      	1141.7036      	1141.6769      	1141.7007      	1141.7147      	1141.6943      	1141.7107      	1141.8         	1141.7185      	1141.6272      	1141.7888      	1141.7163      	1141.7456      	1141.73        	1141.7542      	1141.7732      	1141.7517      	1141.7935      	1141.8446      	1141.7632      	1141.8107      	1141.8004      	1141.6744      	1141.7126      	1141.5577      	1141.2543      	1141.2996      	1141.8134      	1141.6353      	1141.6476      	1141.7195      	1141.682       	1141.7347      	1141.6595      	1141.7837      	1141.6769      	1141.674       	1141.7086      	1141.72        	1141.701       	1141.7333      	1141.6942      	1141.7661      	1141.726       	1141.7991      	1141.7261      	1141.7766      	1141.7512      	1141.7751      	1142.006       	1142.1737      	1142.0421      	1142.0105      	1141.968       	1141.8638      	1141.7969      	1141.9645      	1141.8788      	
1142.0208      	1141.8632      	1141.6974      	1141.3916      	1141.5225      	1141.7186      	1142.1173      	1141.8892      	1141.9735      	1141.9689      	1141.9485      	1141.9152      	1141.9523      	1141.8842      	1141.8679      	1141.991       	1141.9166      	1141.8729      	1141.9434      	1141.7577      	1142.1033      	1141.7716      	1142.05        	1141.8595      	1141.851       	1141.8772      	1141.8739      	1141.9023      	1142.1687      	1142.1713      	1142.0432      	1141.9692      	1141.9534      	1141.864       	1141.9038      	1141.91        	1141.8796      	1141.8303      	1141.8796      	1141.824       	1141.8464      	1141.7714      	1141.841       	1141.8468      	1141.8645      	1141.7573      	1141.8943      	1141.8209      	1141.8817      	1141.7717      	1141.8228      	1141.8217      	1141.779       	1141.8282      	1141.8743      	1141.837       	1141.8033      	1141.8683      	1141.8694      	1141.839       	1141.8582      	1141.7844      	1141.82        	1141.7252      	1141.8513      	1141.8085      	1141.7147      	1141.4524      	1141.3196      	1141.7117      	1141.7472      	1141.7928      	1141.7892      	1141.759       	1141.7719      	1141.6595      	1141.8114      	1141.6995      	1141.8623      	1141.7559      	1141.8113      	1141.8336      	1141.792       	1141.8175      	1141.7765      	1141.8478      	1141.8047      	1141.803       	1141.9304      	1141.856       	1141.8425      	1141.9021      	1142.3124      	1142.0898      	1142.0887      	1142.0602      	1141.9823      	1141.9983      	1142.0116      	1142.0046      	
1141.8712      	1141.8165      	1141.6294      	1141.3287      	1141.3345      	1141.5236      	1142.0623      	1141.8411      	1141.8462      	1141.7378      	1141.97        	1141.7185      	1141.9138      	1141.8732      	1141.7711      	1141.8536      	1141.8033      	1141.9032      	1141.7126      	1141.7316      	1142.0902      	1141.7136      	1141.8342      	1141.8956      	1141.723       	1141.8297      	1141.8477      	1141.8694      	1141.908       	1142.1489      	1142.0114      	1141.9674      	1141.8676      	1141.8345      	1141.8358      	1141.7429      	1141.6722      	1141.8892      	1141.7482      	1141.8112      	1141.7489      	1141.7183      	1141.7418      	1141.7925      	1141.7185      	1141.7898      	1141.8431      	1141.8892      	1141.7603      	1141.7391      	1141.8867      	1141.8313      	1141.8517      	1141.812       	1141.8118      	1141.8068      	1141.8759      	1141.8837      	1141.8252      	1141.8492      	1141.7941      	1141.8677      	1141.8911      	1141.7927      	1141.8925      	1141.8416      	1141.7837      	1141.4344      	1141.6144      	1141.3654      	1141.9819      	1141.8224      	1141.7692      	1141.8103      	1141.8124      	1141.7993      	1141.8169      	1141.7534      	1141.6265      	1141.952       	1141.753       	1141.8291      	1141.8472      	1141.8828      	1141.8187      	1141.8534      	1141.7998      	1141.9058      	1141.8666      	1141.8855      	1141.8466      	1141.9004      	1142.2056      	1142.1519      	1142.0973      	1142.0288      	1141.9478      	1141.9757      	1142.0128      	1141.981       	
1141.9269      	1141.8801      	1141.703       	1141.5842      	1141.314       	1141.4976      	1142.0544      	1141.9447      	1141.929       	1141.8257      	1141.7926      	1141.9408      	1141.7804      	1141.8926      	1141.868       	1141.7968      	1141.8889      	1141.9249      	1141.7944      	1141.7786      	1141.9187      	1141.8116      	1141.8788      	1141.8126      	1141.843       	1141.838       	1141.8628      	1141.8225      	1141.9044      	1142.2239      	1142.0614      	1141.924       	1141.9397      	1141.8129      	1141.8127      	1141.8369      	1141.6863      	1141.7838      	1141.7427      	1141.7253      	1141.7004      	1141.8735      	1141.9335      	1141.834       	1141.7349      	1141.9454      	1141.8687      	1141.8638      	1141.833       	1141.9879      	1141.8843      	1141.8225      	1141.8855      	1141.7653      	1141.8406      	1141.8689      	1141.8474      	1141.894       	1141.8019      	1141.7207      	1141.9987      	1141.8479      	1141.8256      	1141.8671      	1141.756       	1141.8358      	1141.7778      	1141.5376      	1141.3497      	1141.4307      	1142.002       	1141.811       	1141.8347      	1141.8597      	1141.7537      	1141.7954      	1141.7996      	1141.8011      	1141.7798      	1141.8274      	1141.7931      	1141.816       	1141.7476      	1141.7612      	1141.9083      	1141.8065      	1141.8806      	1141.8125      	1141.8265      	1141.9042      	1141.845       	1141.8254      	1142.2963      	1142.2083      	1142.1158      	1142.1141      	1141.952       	1141.9735      	1141.989       	1141.8573      	
1141.8785      	1141.8188      	1141.714       	1141.5709      	1141.3615      	1141.3126      	1141.9011      	1141.9634      	1141.8176      	1141.8522      	1141.8208      	1141.8259      	1141.849       	1141.8185      	1141.8904      	1141.8828      	1141.8687      	1141.7811      	1141.8665      	1141.791       	1141.7736      	1141.9037      	1141.9158      	1141.9432      	1141.7898      	1141.9148      	1141.7853      	1141.8127      	1141.8896      	1142.1473      	1142.0392      	1141.947       	1141.9178      	1141.81        	1141.8204      	1141.7827      	1141.8167      	1141.7318      	1141.9308      	1141.659       	1141.7838      	1141.8903      	1141.7726      	1141.7417      	1141.8455      	1141.8362      	1141.8248      	1141.8313      	1141.9126      	1141.8182      	1141.918       	1141.6901      	1141.8693      	1141.7433      	1141.9539      	1141.8517      	1141.8784      	1141.8727      	1141.8805      	1141.9         	1141.9337      	1141.8992      	1141.9475      	1141.9587      	1141.8962      	1141.9265      	1141.8943      	1141.6992      	1141.397       	1141.3921      	1142.0784      	1141.8615      	1141.9448      	1141.8337      	1141.8434      	1141.8915      	1141.8325      	1141.9003      	1141.8771      	1141.8501      	1141.9233      	1141.9501      	1141.9991      	1141.9124      	1141.9104      	1142.0477      	1142.0095      	1141.9636      	1142.0077      	1142.0288      	1142.003       	1142.0704      	1142.1868      	1142.3938      	1142.2599      	1142.1843      	1142.1525      	1142.1672      	1142.0399      	1142.0624      	
1142.0067      	1141.9966      	1141.8735      	1141.6788      	1141.6202      	1141.5444      	1141.9298      	1142.0819      	1142.0427      	1142.0122      	1141.9312      	1142.116       	1142.019       	1142.0015      	1141.9989      	1142.0214      	1141.9447      	1141.9241      	1142.049       	1142.0876      	1142.0194      	1142.039       	1141.9161      	1142.0588      	1141.9713      	1141.9657      	1141.9299      	1142.1375      	1141.95        	1142.4208      	1142.1952      	1142.0327      	1142.0322      	1141.9915      	1141.9722      	1141.8578      	1141.9199      	1141.8795      	1142.0033      	1141.8231      	1141.9529      	1141.8811      	1141.9102      	1141.8156      	1141.9758      	1141.9832      	1141.8478      	1142.0232      	1142.137       	1141.9744      	1141.9113      	1141.8472      	1141.7747      	1142.1287      	1142.0669      	1141.9915      	1142.0045      	1141.9913      	1141.9408      	1142.1157      	1141.989       	1142.003       	1142.0796      	1142.0657      	1142.0361      	1142.0425      	1142.0303      	1141.8378      	1141.5708      	1141.5724      	1142.0151      	1141.9802      	1142.0095      	1142.0403      	1142.0186      	1141.9812      	1142.0878      	1142.0056      	1141.9673      	1142.1232      	1142.0565      	1142.1123      	1142.0034      	1142.1923      	1142.0812      	1142.1372      	1142.1622      	1142.1506      	1142.1366      	1142.1552      	1142.2174      	1142.2748      	1142.2054      	1142.5358      	1142.2273      	1142.2397      	1142.2516      	1142.328       	1142.1663      	1142.1671      	
1142.0612      	1142.0187      	1141.9058      	1141.6034      	1141.6208      	1141.6368      	1141.8093      	1142.2128      	1142.0825      	1142.0636      	1141.9796      	1142.096       	1142.0819      	1142.062       	1141.9653      	1142.0038      	1142.06        	1141.9238      	1142.1144      	1142.0063      	1142.0465      	1142.0774      	1142.0083      	1141.8923      	1142.1393      	1142.0615      	1142.0785      	1141.9757      	1141.9105      	1142.4006      	1142.2178      	1142.1531      	1142.095       	1142.0997      	1142.0022      	1141.9464      	1142.0009      	1141.9734      	1141.9846      	1141.9895      	1141.9006      	1142.0706      	1141.971       	1142.0671      	1141.9644      	1142.0042      	1142.0806      	1142.1534      	1141.9952      	1142.2324      	1142.1288      	1142.0078      	1141.9331      	1141.9153      	1142.2987      	1142.1024      	1142.0848      	1142.1512      	1142.1108      	1142.0792      	1142.0902      	1142.1552      	1142.2212      	1142.1023      	1142.0833      	1142.1184      	1142.1399      	1141.9792      	1141.7777      	1141.5743      	1141.7993      	1142.2395      	1142.0688      	1142.0217      	1142.0629      	1141.994       	1141.9966      	1142.1383      	1142.1112      	1142.0618      	1142.0532      	1142.0955      	1142.0701      	1142.1753      	1142.0917      	1142.0227      	1142.2073      	1142.0403      	1142.1858      	1142.1332      	1142.2097      	1142.0978      	1142.0645      	1142.4246      	1142.176       	1142.406       	1142.2894      	1142.3538      	1142.1902      	1142.1917      	
1142.0564      	1142.0021      	1141.9677      	1141.7753      	1141.7903      	1141.739       	1141.6133      	1142.1904      	1142.1027      	1142           	1142.0569      	1142.0808      	1141.9514      	1142.0367      	1142.0284      	1142.0438      	1141.9127      	1142.1057      	1141.923       	1142.0686      	1141.935       	1141.8398      	1142.2383      	1142.1566      	1142.0503      	1142.0413      	1142.0121      	1142.0608      	1142.0546      	1142.2421      	1142.438       	1142.1749      	1142.167       	1142.1465      	1142.1044      	1141.9927      	1142.0298      	1142.0935      	1141.9618      	1142.0089      	1142.1655      	1142.0593      	1141.9604      	1142.2544      	1142.0448      	1142.1536      	1142.1039      	1142.0925      	1142.1345      	1142.1564      	1142.3464      	1142.1134      	1142.0336      	1142.1389      	1142.0587      	1142.1925      	1142.1554      	1142.136       	1142.1489      	1142.2402      	1142.1794      	1142.1113      	1142.1748      	1142.1796      	1142.1948      	1142.2406      	1142.2303      	1142.1212      	1141.9568      	1141.7195      	1141.8218      	1142.3661      	1142.1392      	1142.1804      	1142.0942      	1142.2122      	1142.1469      	1142.1406      	1142.3153      	1142.153       	1142.2415      	1142.2211      	1142.2859      	1142.2819      	1142.2653      	1142.1891      	1142.3308      	1142.2444      	1142.2191      	1142.4797      	1142.364       	1142.3606      	1142.2303      	1142.3344      	1142.3424      	1142.5769      	1142.4036      	1142.3696      	1142.4075      	1142.2902      	
1142.2542      	1142.2141      	1142.1705      	1141.9767      	1142.0854      	1141.8105      	1141.7314      	1142.3464      	1142.2894      	1142.2616      	1142.2897      	1142.1614      	1142.2206      	1142.2644      	1142.2124      	1142.179       	1142.3168      	1142.2428      	1142.1844      	1142.2336      	1142.2866      	1142.1696      	1142.2251      	1142.2208      	1142.1982      	1142.2382      	1142.2244      	1142.24        	1142.2245      	1142.237       	1142.6794      	1142.4478      	1142.3658      	1142.3387      	1142.2917      	1142.2898      	1142.162       	1142.2161      	1142.3922      	1142.1348      	1142.1215      	1142.3761      	1142.1382      	1142.3146      	1142.2867      	1142.2429      	1142.2957      	1142.3057      	1142.2971      	1142.2131      	1142.1895      	1142.3177      	1142.3154      	1142.2241      	1142.2915      	1142.2933      	1142.2911      	1142.3436      	1142.3357      	1142.3213      	1142.3485      	1142.3372      	1142.2931      	1142.2513      	1142.2937      	1142.216       	1142.3232      	1142.2283      	1142.0337      	1141.9531      	1141.8228      	1142.2007      	1142.3527      	1142.2565      	1142.2555      	1142.3059      	1142.2255      	1142.2341      	1142.2747      	1142.3346      	1142.2322      	1142.2478      	1142.3505      	1142.321       	1142.3116      	1142.297       	1142.3419      	1142.3331      	1142.3141      	1142.4099      	1142.2346      	1142.4446      	1142.365       	1142.3962      	1142.3573      	1142.3835      	1142.4861      	1142.421       	1142.424       	1142.2429      	
1142.164       	1142.1515      	1142.1353      	1142.0837      	1141.9468      	1141.8622      	1141.7623      	1141.9194      	1142.2491      	1142.1776      	1142.0833      	1142.1891      	1142.1167      	1142.1458      	1142.1282      	1142.1857      	1142.1974      	1142.0881      	1142.1846      	1142.2095      	1142.0359      	1142.1962      	1142.2263      	1142.177       	1142.0853      	1142.151       	1142.1317      	1142.1544      	1142.106       	1142.0627      	1142.4755      	1142.396       	1142.3021      	1142.2567      	1142.1844      	1142.1324      	1142.1967      	1142.1436      	1142.1802      	1142.208       	1142.1991      	1142.1476      	1142.2323      	1142.1935      	1142.262       	1142.2817      	1142.2727      	1142.2264      	1142.1456      	1142.4187      	1142.2655      	1142.2513      	1142.2908      	1142.2524      	1142.3589      	1142.2046      	1142.3186      	1142.3685      	1142.237       	1142.2843      	1142.2743      	1142.3627      	1142.2958      	1142.2694      	1142.3652      	1142.2712      	1142.277       	1142.2938      	1142.0135      	1141.9753      	1141.9025      	1141.9641      	1142.5034      	1142.4441      	1142.2771      	1142.3811      	1142.3833      	1142.3137      	1142.3455      	1142.3315      	1142.3888      	1142.3694      	1142.303       	1142.3196      	1142.3468      	1142.4302      	1142.3202      	1142.4556      	1142.3959      	1142.3417      	1142.4945      	1142.3387      	1142.4198      	1142.4036      	1142.3374      	1142.4365      	1142.4116      	1142.298       	1142.468       	1142.3843      	
1142.391       	1142.3518      	1142.353       	1142.3865      	1142.1958      	1142.136       	1141.825       	1142.0426      	1142.658       	1142.4249      	1142.406       	1142.3733      	1142.4987      	1142.4146      	1142.4536      	1142.4156      	1142.4202      	1142.4337      	1142.3013      	1142.5004      	1142.3839      	1142.3182      	1142.4982      	1142.4247      	1142.3589      	1142.5073      	1142.3596      	1142.479       	1142.3115      	1142.3301      	1142.6017      	1142.7646      	1142.5884      	1142.589       	1142.4692      	1142.4724      	1142.4784      	1142.4822      	1142.5256      	1142.4817      	1142.4845      	1142.4701      	1142.5281      	1142.5535      	1142.5839      	1142.5087      	1142.5793      	1142.4592      	1142.4052      	1142.687       	1142.6499      	1142.5386      	1142.5656      	1142.5872      	1142.5532      	1142.5961      	1142.6069      	1142.5725      	1142.6338      	1142.5386      	1142.5282      	1142.6418      	1142.5444      	1142.603       	1142.5646      	1142.5679      	1142.6047      	1142.4907      	1142.5684      	1142.3069      	1142.0634      	1142.2317      	1142.6553      	1142.5646      	1142.5852      	1142.5482      	1142.5151      	1142.5623      	1142.5674      	1142.5835      	1142.5565      	1142.6166      	1142.6373      	1142.5184      	1142.7452      	1142.695       	1142.6158      	1142.6658      	1142.6993      	1142.7169      	1142.7382      	1142.5457      	1142.6873      	1142.7958      	1142.5754      	1142.7579      	1142.7263      	1142.7083      	1142.73        	1142.6682      	
1142.67        	1142.6555      	1142.6304      	1142.6943      	1142.4451      	1142.5233      	1142.3427      	1142.0449      	1142.7698      	1142.7297      	1142.6776      	1142.6628      	1142.6482      	1142.6545      	1142.6146      	1142.7694      	1142.593       	1142.6421      	1142.6318      	1142.555       	1142.6417      	1142.7036      	1142.7273      	1142.5708      	1142.6631      	1142.6395      	1142.6888      	1142.5721      	1142.6387      	1142.6584      	1142.7642      	1143.0376      	1142.8667      	1142.8231      	1142.7451      	1142.7634      	1142.6703      	1142.7808      	1142.7845      	1142.6647      	1142.762       	1142.7188      	1142.7693      	1142.7258      	1142.7166      	1142.7379      	1142.7762      	1142.7925      	1142.7954      	1142.7004      	1142.8076      	1142.779       	1142.8269      	1142.777       	1142.7642      	1142.8909      	1142.8499      	1142.7957      	1142.8169      	1142.834       	1142.8059      	1142.805       	1142.8702      	1142.8351      	1142.8553      	1142.8895      	1142.7693      	1142.8823      	1142.7383      	1142.7002      	1142.2452      	1142.5929      	1142.8628      	1142.883       	1142.6974      	1142.9249      	1142.937       	1142.7756      	1142.909       	1142.9657      	1142.759       	1142.9384      	1142.9218      	1143.0125      	1142.9637      	1142.8556      	1143.068       	1142.9507      	1142.9468      	1142.9861      	1142.934       	1142.9624      	1142.888       	1142.9626      	1142.9423      	1142.8198      	1142.976       	1142.923       	1142.9758      	1142.8514      	
1142.6781      	1142.6545      	1142.6843      	1142.6763      	1142.4484      	1142.436       	1142.4187      	1142.3846      	1142.5981      	1142.7788      	1142.6788      	1142.6296      	1142.7134      	1142.6604      	1142.635       	1142.7037      	1142.6659      	1142.6434      	1142.6903      	1142.7125      	1142.5963      	1142.6547      	1142.7203      	1142.6263      	1142.6372      	1142.5925      	1142.6726      	1142.6495      	1142.5823      	1142.5366      	1142.7938      	1143.0743      	1142.8303      	1142.7649      	1142.7766      	1142.7228      	1142.7784      	1142.6995      	1142.7109      	1142.699       	1142.7007      	1142.7368      	1142.6987      	1142.7726      	1142.7048      	1142.6892      	1142.7446      	1142.78        	1142.8055      	1142.7454      	1142.7062      	1142.7584      	1142.7916      	1142.7864      	1142.6721      	1142.8716      	1142.8357      	1142.7004      	1142.7065      	1142.83        	1142.6981      	1142.8141      	1142.7384      	1142.7285      	1142.715       	1142.7068      	1142.7036      	1142.6842      	1142.6602      	1142.4982      	1142.457       	1142.4143      	1142.4595      	1142.8094      	1142.751       	1142.7225      	1142.7388      	1142.735       	1142.7815      	1142.8403      	1142.7986      	1142.7367      	1142.8364      	1142.7941      	1142.7598      	1142.8251      	1142.7284      	1142.8678      	1142.7693      	1142.7661      	1142.796       	1142.8003      	1142.7682      	1142.7993      	1142.575       	1142.5823      	1142.9623      	1142.7853      	1142.7606      	1142.7517      	
1142.4943      	1142.4601      	1142.4329      	1142.5088      	1142.3976      	1142.2241      	1142.2698      	1142.1531      	1142.1814      	1142.6597      	1142.5815      	1142.5488      	1142.5857      	1142.5356      	1142.5148      	1142.4952      	1142.489       	1142.4807      	1142.5336      	1142.4868      	1142.4336      	1142.4458      	1142.5203      	1142.4493      	1142.4602      	1142.4828      	1142.4829      	1142.465       	1142.4064      	1142.4718      	1142.5009      	1142.8304      	1142.6466      	1142.6743      	1142.6134      	1142.5789      	1142.508       	1142.5757      	1142.5769      	1142.4346      	1142.5797      	1142.5537      	1142.5114      	1142.5488      	1142.5634      	1142.5747      	1142.4911      	1142.5679      	1142.5631      	1142.5409      	1142.5728      	1142.6189      	1142.5713      	1142.5676      	1142.5737      	1142.619       	1142.6167      	1142.5951      	1142.5819      	1142.5781      	1142.5853      	1142.5743      	1142.6068      	1142.5763      	1142.5122      	1142.5957      	1142.4883      	1142.4377      	1142.5009      	1142.6034      	1142.6146      	1142.2395      	1141.9149      	1142.7104      	1142.644       	1142.5966      	1142.6294      	1142.6027      	1142.6276      	1142.6151      	1142.6217      	1142.6172      	1142.6144      	1142.5767      	1142.6489      	1142.6399      	1142.5276      	1142.6055      	1142.6426      	1142.6018      	1142.5919      	1142.6483      	1142.6766      	1142.575       	1142.4653      	1142.4249      	1142.7069      	1142.5806      	1142.632       	1142.5393      	
1142.3472      	1142.2919      	1142.2892      	1142.4141      	1142.2684      	1142.2777      	1142.1764      	1141.7714      	1142.1218      	1142.4384      	1142.3743      	1142.2822      	1142.3529      	1142.3239      	1142.3003      	1142.3495      	1142.3373      	1142.4417      	1142.3948      	1142.3726      	1142.3102      	1142.3445      	1142.3354      	1142.3773      	1142.3702      	1142.2737      	1142.3322      	1142.3353      	1142.3335      	1142.3015      	1142.3271      	1142.5927      	1142.6555      	1142.4806      	1142.5613      	1142.4429      	1142.3866      	1142.3755      	1142.5034      	1142.34        	1142.4634      	1142.5071      	1142.4132      	1142.4772      	1142.4406      	1142.5126      	1142.4282      	1142.507       	1142.5067      	1142.4894      	1142.5618      	1142.501       	1142.5028      	1142.4819      	1142.4315      	1142.5022      	1142.4911      	1142.3959      	1142.4891      	1142.4595      	1142.5073      	1142.3967      	1142.4054      	1142.5272      	1142.4636      	1142.3337      	1142.5115      	1142.388       	1142.4362      	1142.3784      	1142.4338      	1142.2792      	1142.0887      	1142.6134      	1142.526       	1142.5331      	1142.552       	1142.5112      	1142.4767      	1142.5742      	1142.581       	1142.589       	1142.5513      	1142.5334      	1142.5774      	1142.5858      	1142.573       	1142.6368      	1142.5935      	1142.5862      	1142.6017      	1142.6072      	1142.5876      	1142.5614      	1142.5526      	1142.5872      	1142.5165      	1142.5835      	1142.5038      	1142.5825      	
1142.5109      	1142.4719      	1142.4149      	1142.4738      	1142.4882      	1142.1772      	1142.211       	1142.2638      	1142.0068      	1142.6158      	1142.5785      	1142.5315      	1142.4941      	1142.5126      	1142.4718      	1142.4573      	1142.4695      	1142.4648      	1142.5154      	1142.4344      	1142.4829      	1142.5159      	1142.5021      	1142.4866      	1142.4705      	1142.505       	1142.5571      	1142.4933      	1142.4532      	1142.4501      	1142.605       	1142.7247      	1142.8262      	1142.7155      	1142.674       	1142.671       	1142.6284      	1142.6462      	1142.5961      	1142.6333      	1142.5912      	1142.5927      	1142.5874      	1142.6235      	1142.754       	1142.6818      	1142.625       	1142.7135      	1142.7037      	1142.6323      	1142.609       	1142.759       	1142.6919      	1142.6371      	1142.6495      	1142.6292      	1142.488       	1142.6664      	1142.632       	1142.5734      	1142.7318      	1142.5376      	1142.5457      	1142.5515      	1142.6292      	1142.6874      	1142.6697      	1142.5986      	1142.6361      	1142.6257      	1142.5764      	1142.4291      	1142.6655      	1142.7473      	1142.7546      	1142.6826      	1142.6975      	1142.703       	1142.7218      	1142.8197      	1142.7412      	1142.7393      	1142.7695      	1142.7291      	1142.7332      	1142.7711      	1142.7557      	1142.6473      	1142.7479      	1142.7325      	1142.6733      	1142.7466      	1142.7068      	1142.7178      	1142.6686      	1142.5641      	1142.7153      	1142.6727      	1142.6555      	1142.6561      	
1142.6744      	1142.6478      	1142.5433      	1142.6984      	1142.7874      	1142.6714      	1142.3475      	1142.3905      	1142.2189      	1142.5194      	1142.7968      	1142.6508      	1142.6213      	1142.6823      	1142.5264      	1142.6792      	1142.6323      	1142.6277      	1142.6003      	1142.5923      	1142.622       	1142.5205      	1142.5696      	1142.5839      	1142.598       	1142.5428      	1142.6335      	1142.5868      	1142.5366      	1142.6062      	1142.5621      	1142.6511      	1142.9788      	1142.7913      	1142.8097      	1142.7769      	1142.6991      	1142.7227      	1142.7501      	1142.6755      	1142.6586      	1142.7821      	1142.6913      	1142.6106      	1142.7551      	1142.7225      	1142.6697      	1142.7618      	1142.6683      	1142.7058      	1142.786       	1142.5266      	1142.7181      	1142.5686      	1142.7988      	1142.6512      	1142.6772      	1142.5614      	1142.6501      	1142.6727      	1142.7026      	1142.5981      	1142.4224      	1142.6768      	1142.633       	1142.5825      	1142.7727      	1142.4377      	1142.6128      	1142.633       	1142.7327      	1142.8168      	1142.8044      	1142.7108      	1142.8103      	1142.7992      	1142.7183      	1142.8102      	1142.7617      	1142.8422      	1142.8391      	1142.661       	1142.8772      	1142.7959      	1142.7806      	1142.7762      	1142.7368      	1142.8102      	1142.7798      	1142.8279      	1142.7549      	1142.8087      	1142.7239      	1142.7112      	1142.8569      	1142.7833      	1142.6772      	1142.7288      	1142.7273      	1142.7278      	
1142.551       	1142.5247      	1142.5576      	1142.5521      	1142.6106      	1142.5269      	1142.4492      	1142.2734      	1142.2433      	1142.218       	1142.6947      	1142.5673      	1142.5391      	1142.5349      	1142.5822      	1142.5538      	1142.5103      	1142.5127      	1142.5222      	1142.5912      	1142.545       	1142.6075      	1142.6223      	1142.5985      	1142.6093      	1142.5903      	1142.5078      	1142.6302      	1142.6141      	1142.5745      	1142.5787      	1142.6073      	1143.0149      	1142.8827      	1142.8118      	1142.7332      	1142.6843      	1142.6946      	1142.6757      	1142.7474      	1142.7053      	1142.7056      	1142.7766      	1142.7831      	1142.7147      	1142.7117      	1142.6523      	1142.6392      	1142.7991      	1142.5925      	1142.4098      	1142.6631      	1142.7474      	1142.6288      	1142.632       	1142.7301      	1142.5327      	1142.627       	1142.5734      	1142.6116      	1142.5833      	1142.628       	1142.6265      	1142.463       	1142.5148      	1142.8468      	1142.6986      	1142.619       	1142.6896      	1142.6536      	1142.6698      	1142.7437      	1142.6355      	1142.6818      	1142.707       	1142.6984      	1142.6384      	1142.7959      	1142.7297      	1142.7639      	1142.7141      	1142.7146      	1142.7832      	1142.7296      	1142.7361      	1142.6705      	1142.795       	1142.7214      	1142.7283      	1142.6986      	1142.6816      	1142.7157      	1142.6373      	1142.6857      	1142.676       	1142.6161      	1142.6488      	1142.6188      	1142.6697      	1142.588       	
1142.4862      	1142.4458      	1142.4382      	1142.4785      	1142.5134      	1142.4026      	1142.3285      	1142.2478      	1142.1233      	1142.1942      	1142.621       	1142.4652      	1142.4624      	1142.3777      	1142.482       	1142.4514      	1142.4238      	1142.4437      	1142.3782      	1142.4341      	1142.4467      	1142.3738      	1142.3843      	1142.4263      	1142.3228      	1142.2832      	1142.2366      	1142.2596      	1142.3333      	1142.3795      	1142.4695      	1142.4036      	1142.7227      	1142.7092      	1142.593       	1142.6812      	1142.57        	1142.5386      	1142.5784      	1142.5186      	1142.539       	1142.506       	1142.4834      	1142.4618      	1142.5911      	1142.4739      	1142.2764      	1142.5007      	1142.5245      	1142.536       	1142.53        	1142.4358      	1142.4812      	1142.4233      	1142.4608      	1142.4552      	1142.3816      	1142.4835      	1142.3135      	1142.5538      	1142.4722      	1142.5096      	1142.6777      	1142.5884      	1142.5208      	1142.5353      	1142.588       	1142.4464      	1142.5448      	1142.5394      	1142.5533      	1142.5333      	1142.556       	1142.529       	1142.5563      	1142.5428      	1142.4895      	1142.5955      	1142.5908      	1142.5438      	1142.5095      	1142.636       	1142.5946      	1142.5023      	1142.5958      	1142.5308      	1142.4683      	1142.4432      	1142.5243      	1142.4536      	1142.5055      	1142.4661      	1142.4474      	1142.4479      	1142.3901      	1142.5087      	1142.3622      	1142.4579      	1142.4161      	1142.4609      	
1142.4458      	1142.4048      	1142.4114      	1142.4336      	1142.4279      	1142.4506      	1142.2703      	1142.2029      	1141.8813      	1141.9554      	1142.4728      	1142.3894      	1142.4084      	1142.3722      	1142.3932      	1142.362       	1142.3701      	1142.2905      	1142.3295      	1142.4407      	1142.3403      	1142.3546      	1142.2916      	1142.3921      	1142.3489      	1142.4111      	1142.364       	1142.4116      	1142.3555      	1142.4054      	1142.392       	1142.4506      	1142.4644      	1142.7484      	1142.5442      	1142.4877      	1142.5284      	1142.4615      	1142.445       	1142.3826      	1142.3384      	1142.4323      	1142.3817      	1142.3618      	1142.4989      	1142.4343      	1142.3341      	1142.4318      	1142.4823      	1142.401       	1142.4036      	1142.3789      	1142.4287      	1142.3425      	1142.4314      	1142.5634      	1142.1132      	1142.3876      	1142.5378      	1142.5509      	1142.4991      	1142.3735      	1142.4828      	1142.3885      	1142.4675      	1142.3866      	1142.5098      	1142.4946      	1142.489       	1142.4453      	1142.4093      	1142.4393      	1142.4722      	1142.4583      	1142.4597      	1142.425       	1142.4517      	1142.4861      	1142.4692      	1142.474       	1142.4329      	1142.4689      	1142.5463      	1142.3654      	1142.5734      	1142.487       	1142.4845      	1142.437       	1142.3962      	1142.4366      	1142.5276      	1142.3733      	1142.3364      	1142.5352      	1142.4164      	1142.4519      	1142.3486      	1142.3427      	1142.3469      	1142.4292      	
1142.2173      	1142.1647      	1142.1101      	1142.1595      	1142.2181      	1142.2372      	1142.1124      	1141.8418      	1142.0001      	1141.5673      	1142.2151      	1142.1912      	1142.1815      	1142.1415      	1142.1088      	1142.1764      	1142.2068      	1142.0876      	1142.1803      	1142.2373      	1142.1362      	1142.1259      	1142.1906      	1142.1449      	1142.1562      	1142.1395      	1142.1843      	1142.1248      	1142.1271      	1142.2131      	1142.0964      	1142.143       	1142.2454      	1142.4346      	1142.3446      	1142.2434      	1142.3784      	1142.3588      	1142.2686      	1142.1865      	1142.2458      	1142.1907      	1142.0624      	1142.1896      	1142.2089      	1142.2659      	1142.1067      	1142.1063      	1142.149       	1142.1765      	1142.01        	1142.0673      	1142.3801      	1142.3191      	1142.2458      	1142.207       	1142.2202      	1142.2571      	1142.1907      	1142.1246      	1142.2798      	1142.1682      	1142.1622      	1142.2578      	1142.2561      	1142.1709      	1142.2177      	1142.152       	1142.245       	1142.2089      	1142.2146      	1142.1652      	1142.2085      	1142.1141      	1142.3984      	1142.1476      	1142.4069      	1142.2056      	1142.1799      	1142.2925      	1142.3192      	1142.2155      	1142.2749      	1142.253       	1142.3273      	1142.2073      	1142.2523      	1142.2136      	1142.1919      	1142.2668      	1142.2137      	1142.2219      	1142.2269      	1142.1027      	1142.1208      	1142.1676      	1142.1954      	1142.0907      	1142.212       	1142.1409      	
1141.933       	1141.8861      	1141.9109      	1141.9528      	1141.9824      	1141.9496      	1141.9629      	1141.7097      	1141.7777      	1141.434       	1141.8374      	1142.0337      	1141.9875      	1141.9219      	1141.883       	1141.9357      	1141.8986      	1141.8934      	1141.8433      	1142.0236      	1141.9187      	1141.8789      	1141.9032      	1141.889       	1141.9344      	1141.862       	1141.918       	1141.9258      	1141.914       	1141.8567      	1141.875       	1141.9155      	1141.8766      	1141.9073      	1142.0542      	1142.136       	1142.06        	1141.9458      	1142.1228      	1141.9253      	1141.8527      	1141.7626      	1141.966       	1141.8385      	1141.9646      	1141.8679      	1141.8374      	1141.8347      	1141.954       	1142.1327      	1141.9924      	1141.9594      	1141.9875      	1141.8986      	1141.9236      	1142.0269      	1141.9966      	1141.8434      	1141.9655      	1141.9508      	1141.9106      	1141.9055      	1141.9448      	1141.896       	1141.8865      	1141.9126      	1141.9005      	1141.9001      	1141.928       	1141.9266      	1141.979       	1141.8911      	1141.8566      	1141.9913      	1142.1278      	1141.8295      	1141.8425      	1142.0027      	1141.9213      	1141.9116      	1141.9802      	1141.8679      	1141.9309      	1141.8828      	1141.9305      	1141.9532      	1141.8986      	1141.9244      	1141.8373      	1141.8938      	1141.9684      	1141.81        	1141.9012      	1141.8508      	1141.8667      	1141.857       	1141.8617      	1141.783       	1141.8461      	1141.8113      	
1141.6926      	1141.6935      	1141.6243      	1141.6554      	1141.6493      	1141.6672      	1141.6772      	1141.6615      	1141.2751      	1141.2767      	1141.3175      	1141.8417      	1141.7292      	1141.6279      	1141.6337      	1141.6718      	1141.6654      	1141.6372      	1141.6902      	1141.6589      	1141.6682      	1141.6262      	1141.7426      	1141.6196      	1141.7147      	1141.5372      	1141.6711      	1141.645       	1141.6437      	1141.5876      	1141.645       	1141.616       	1141.6763      	1141.6478      	1141.7101      	1141.6938      	1141.8745      	1141.6171      	1141.7548      	1141.5425      	1141.5548      	1141.5546      	1141.638       	1141.7051      	1141.4695      	1141.8472      	1141.7572      	1141.7294      	1141.6975      	1141.7113      	1141.7554      	1141.6884      	1141.7042      	1141.7245      	1141.6912      	1141.7034      	1141.7015      	1141.727       	1141.7295      	1141.7397      	1141.6895      	1141.7034      	1141.7421      	1141.7123      	1141.7584      	1141.7249      	1141.6995      	1141.8029      	1141.7657      	1141.6937      	1141.8125      	1141.8359      	1141.7368      	1141.7899      	1141.7748      	1141.8479      	1141.716       	1141.7859      	1141.8387      	1141.7593      	1141.7899      	1141.7743      	1141.6531      	1141.8312      	1141.7671      	1141.8391      	1141.7283      	1141.6956      	1141.8256      	1141.6874      	1141.6772      	1141.6653      	1141.7325      	1141.7125      	1141.6866      	1141.7625      	1141.6033      	1141.6796      	1141.6815      	1141.7385      	
1141.7642      	1141.7524      	1141.7245      	1141.7535      	1141.7637      	1141.6381      	1141.8258      	1141.7305      	1141.5378      	1141.3909      	1141.4998      	1141.5887      	1141.7563      	1141.7059      	1141.75        	1141.635       	1141.7616      	1141.7074      	1141.648       	1141.7244      	1141.6726      	1141.679       	1141.6597      	1141.7233      	1141.689       	1141.663       	1141.7727      	1141.6617      	1141.6798      	1141.6603      	1141.6921      	1141.7278      	1141.6965      	1141.6931      	1141.7198      	1141.6814      	1141.7571      	1141.7405      	1141.8508      	1141.6995      	1141.803       	1141.8167      	1141.7991      	1141.6544      	1141.8309      	1141.7489      	1141.7458      	1141.8002      	1141.7948      	1141.7925      	1141.8057      	1141.7628      	1141.7561      	1141.7993      	1141.7894      	1141.8029      	1141.7446      	1141.8923      	1141.7621      	1141.803       	1141.8883      	1141.8184      	1141.77        	1141.8845      	1141.7728      	1141.8616      	1141.8352      	1141.8595      	1141.8347      	1141.8905      	1141.7517      	1141.9484      	1141.7837      	1141.8136      	1141.8579      	1141.8575      	1141.8627      	1141.7678      	1141.8438      	1141.8833      	1141.849       	1141.826       	1141.8755      	1141.8584      	1141.7673      	1141.8665      	1141.6218      	1141.8917      	1141.7828      	1141.7404      	1141.7755      	1141.731       	1141.7391      	1141.7218      	1141.7683      	1141.7977      	1141.6613      	1141.5975      	1141.7952      	1141.6963      	
1141.9218      	1141.8694      	1141.8557      	1141.9084      	1141.9685      	1141.9161      	1141.9681      	1141.9214      	1141.7109      	1141.7146      	1141.5145      	1141.6453      	1142.114       	1141.9426      	1141.9501      	1141.9648      	1141.9327      	1141.949       	1141.9196      	1141.9958      	1141.9509      	1141.924       	1141.9043      	1141.9374      	1141.9084      	1141.9436      	1141.9548      	1141.8335      	1141.9587      	1141.9568      	1141.9324      	1141.9364      	1141.9806      	1141.9929      	1141.9918      	1141.95        	1142.031       	1142.006       	1141.9758      	1142.0276      	1142.0245      	1142.0343      	1142.0306      	1141.9817      	1142.0314      	1141.9678      	1141.9874      	1142.0088      	1142.003       	1142.0043      	1142.0458      	1141.981       	1142.0067      	1141.944       	1142.016       	1141.9592      	1141.9894      	1141.9409      	1141.9916      	1141.9891      	1142.0116      	1142.0311      	1141.9882      	1141.9777      	1141.9934      	1142.03        	1141.9913      	1142.097       	1142.0685      	1142.036       	1141.9927      	1142.0245      	1142.0026      	1141.9907      	1142.0317      	1141.9958      	1142.0571      	1142.0183      	1142.0831      	1141.9858      	1142.0071      	1142.0173      	1142.0176      	1142.0044      	1141.9446      	1141.988       	1141.954       	1142.0048      	1141.9542      	1141.9845      	1141.9846      	1141.9656      	1141.954       	1141.9215      	1141.9662      	1141.9521      	1141.9725      	1141.8878      	1141.9315      	1141.9006      	
1142.2415      	1142.2166      	1142.1935      	1142.1814      	1142.2307      	1142.1108      	1142.2932      	1142.1495      	1142.0374      	1141.8768      	1141.8579      	1141.8966      	1142.2847      	1142.1154      	1142.1019      	1142.1835      	1142.0961      	1142.093       	1142.1478      	1142.0436      	1142.1942      	1142.121       	1142.1714      	1142.1681      	1142.1537      	1142.1847      	1142.0972      	1142.142       	1142.1326      	1142.098       	1142.2162      	1142.1434      	1142.1614      	1142.177       	1142.1779      	1142.1903      	1142.164       	1142.2222      	1142.2454      	1142.1628      	1142.2327      	1142.158       	1142.1643      	1142.2557      	1142.213       	1142.1718      	1142.1942      	1142.1448      	1142.2489      	1142.2257      	1142.2186      	1142.1759      	1142.1812      	1142.2017      	1142.2308      	1142.2437      	1142.2141      	1142.1716      	1142.2548      	1142.2163      	1142.2291      	1142.2605      	1142.2263      	1142.1064      	1142.2515      	1142.2284      	1142.2205      	1142.3021      	1142.2378      	1142.2896      	1142.2473      	1142.3079      	1142.306       	1142.1997      	1142.3127      	1142.315       	1142.2522      	1142.326       	1142.326       	1142.2928      	1142.2458      	1142.3418      	1142.317       	1142.296       	1142.2433      	1142.274       	1142.2638      	1142.309       	1142.2557      	1142.208       	1142.3035      	1142.2224      	1142.2186      	1142.1854      	1142.2644      	1142.2493      	1142.2792      	1142.247       	1142.2244      	1142.2275      	
1142.5956      	1142.5358      	1142.527       	1142.6151      	1142.5095      	1142.5541      	1142.3948      	1142.6183      	1142.488       	1142.2527      	1142.0856      	1142.2151      	1142.4349      	1142.5089      	1142.5283      	1142.5046      	1142.5427      	1142.4923      	1142.5626      	1142.503       	1142.5042      	1142.5422      	1142.58        	1142.5028      	1142.5304      	1142.4669      	1142.5103      	1142.4832      	1142.5643      	1142.5392      	1142.4736      	1142.519       	1142.588       	1142.5575      	1142.5564      	1142.4114      	1142.6646      	1142.5594      	1142.6191      	1142.5627      	1142.6399      	1142.606       	1142.6158      	1142.5662      	1142.6644      	1142.6112      	1142.6129      	1142.5618      	1142.6271      	1142.572       	1142.6526      	1142.584       	1142.5935      	1142.5897      	1142.6053      	1142.5927      	1142.5867      	1142.5742      	1142.6407      	1142.594       	1142.5759      	1142.6212      	1142.5787      	1142.4053      	1142.4509      	1142.5651      	1142.6049      	1142.6918      	1142.5288      	1142.6953      	1142.6661      	1142.7104      	1142.6793      	1142.5867      	1142.6223      	1142.741       	1142.6471      	1142.6427      	1142.6107      	1142.6444      	1142.6075      	1142.5969      	1142.5867      	1142.594       	1142.6177      	1142.5101      	1142.709       	1142.5608      	1142.6066      	1142.6335      	1142.6289      	1142.5769      	1142.647       	1142.5532      	1142.5508      	1142.5004      	1142.6649      	1142.5823      	1142.6241      	1142.5754      	
1142.8337      	1142.8103      	1142.736       	1142.6102      	1142.8247      	1142.7571      	1142.6849      	1142.8418      	1142.8561      	1142.7422      	1142.4426      	1142.4419      	1142.7292      	1142.8098      	1142.8312      	1142.8159      	1142.7587      	1142.838       	1142.7683      	1142.8203      	1142.8824      	1142.8124      	1142.8257      	1142.8606      	1142.7892      	1142.8721      	1142.8127      	1142.8558      	1142.8499      	1142.9172      	1142.8562      	1142.9089      	1142.8768      	1142.9249      	1142.8877      	1142.9266      	1142.8984      	1142.9126      	1142.9651      	1142.9224      	1142.8982      	1142.8281      	1142.9084      	1142.9573      	1142.9368      	1142.8911      	1142.9774      	1142.9419      	1142.9321      	1142.954       	1142.9913      	1142.9902      	1142.9058      	1142.8412      	1142.9172      	1142.9065      	1142.9263      	1142.9464      	1142.8909      	1142.885       	1142.9099      	1142.9681      	1142.8807      	1142.9247      	1142.9432      	1142.9431      	1142.9711      	1142.9164      	1142.9689      	1142.9409      	1142.8552      	1143.0281      	1142.978       	1142.8785      	1142.9764      	1142.9501      	1142.9257      	1143.0071      	1142.9509      	1142.9568      	1142.9678      	1142.9102      	1142.9875      	1142.9039      	1142.9426      	1142.9075      	1142.9216      	1142.8458      	1142.9526      	1142.8754      	1142.9158      	1142.8394      	1142.897       	1142.8884      	1142.839       	1142.8616      	1142.8962      	1142.8446      	1142.9133      	1142.8385      	
1143.0338      	1142.8925      	1142.8718      	1142.9741      	1142.9651      	1142.8628      	1142.9984      	1143.0676      	1142.9755      	1143           	1142.8966      	1142.542       	1142.8834      	1143.0237      	1143.0237      	1142.993       	1142.9817      	1143.0103      	1142.9646      	1142.969       	1142.9847      	1142.9803      	1142.9916      	1142.9923      	1143.0042      	1142.9465      	1142.9738      	1142.9236      	1142.9907      	1143.013       	1142.991       	1142.9558      	1143.0096      	1142.9515      	1143.0138      	1142.9637      	1142.9814      	1143.0166      	1143.0424      	1143.0083      	1142.9458      	1143.0371      	1143.0388      	1142.9474      	1143.0526      	1143.0126      	1142.9803      	1143.0243      	1143.0529      	1142.9689      	1142.9972      	1142.9552      	1142.9426      	1143.0311      	1142.9319      	1142.9767      	1142.9647      	1142.9763      	1143.0125      	1142.9705      	1142.9597      	1143.011       	1142.9148      	1143.0375      	1142.993       	1143.0244      	1143.0106      	1142.9177      	1143.0634      	1143.0892      	1142.9589      	1143.0465      	1142.9663      	1143.0994      	1143.0223      	1142.9957      	1143.0775      	1142.96        	1142.9954      	1142.9478      	1142.9944      	1142.9713      	1142.987       	1142.8696      	1142.9875      	1142.8911      	1142.9023      	1142.9569      	1142.9093      	1142.9089      	1142.9204      	1142.9613      	1142.8452      	1142.9036      	1142.8575      	1142.9398      	1142.8342      	1142.9021      	1142.9553      	1142.875       	
1142.9071      	1142.9044      	1142.8506      	1142.8301      	1142.8827      	1142.8123      	1142.7954      	1142.9211      	1142.9374      	1142.9275      	1142.7638      	1142.5836      	1143.0961      	1142.9827      	1142.9764      	1142.8615      	1142.9214      	1142.907       	1142.8855      	1142.981       	1142.9762      	1142.87        	1142.9529      	1142.9143      	1142.9415      	1142.8973      	1142.9227      	1142.917       	1142.9183      	1142.9514      	1142.9473      	1143.0037      	1142.9562      	1142.9652      	1142.9696      	1142.9413      	1143.02        	1142.9623      	1143.01        	1142.9208      	1143.0991      	1142.8683      	1142.9265      	1142.9738      	1142.9324      	1142.946       	1143.0017      	1142.9192      	1142.9696      	1142.9113      	1142.9618      	1142.9481      	1143.0237      	1142.9032      	1142.9485      	1142.9792      	1142.9608      	1142.9595      	1142.9038      	1142.9062      	1142.9097      	1142.9497      	1142.9929      	1142.9889      	1142.9556      	1143.1023      	1143.094       	1143.0308      	1143.0427      	1142.9202      	1143.1616      	1142.9982      	1142.9631      	1143.061       	1142.968       	1143.019       	1142.9304      	1143.0186      	1142.9464      	1143.0012      	1142.9923      	1143.0253      	1142.8977      	1143.0238      	1142.912       	1142.9407      	1142.9922      	1142.9034      	1142.9272      	1142.9253      	1142.9417      	1142.9589      	1142.9226      	1142.9338      	1142.9182      	1142.9641      	1142.8901      	1142.9165      	1142.9507      	1142.9252      	
1142.9327      	1142.9458      	1142.8204      	1142.8247      	1142.9089      	1142.925       	1142.9932      	1142.8357      	1142.908       	1142.8844      	1143.1791      	1143.1274      	1143.0508      	1143.0697      	1143.023       	1142.9774      	1143.0308      	1142.9745      	1143.0447      	1142.9818      	1143.0497      	1142.965       	1143.0405      	1142.9427      	1143.038       	1142.9725      	1143.005       	1143.0084      	1142.9547      	1143.0558      	1142.9563      	1143.0549      	1143.0448      	1142.9895      	1143.1232      	1143.0302      	1143.0634      	1143.1001      	1143.0414      	1143.0798      	1143.0897      	1143.0176      	1143.0356      	1143.0652      	1142.8698      	1143.1306      	1143.0144      	1143.0266      	1143.0568      	1142.9941      	1143.0286      	1142.982       	1142.9943      	1143.0115      	1143.0117      	1142.942       	1143.0477      	1143.0154      	1143.0145      	1142.9908      	1143.055       	1143.0061      	1143.0542      	1143.0425      	1143.0498      	1143.0132      	1143.0568      	1143.0847      	1143.0349      	1143.1024      	1142.9962      	1143.0298      	1143.1102      	1143.0033      	1143.0248      	1143.064       	1143.0184      	1143.0228      	1142.9943      	1142.9436      	1143.0458      	1142.9896      	1143.035       	1142.9729      	1142.9895      	1142.945       	1142.9816      	1143.0216      	1142.9778      	1142.9851      	1142.9316      	1142.9839      	1142.8916      	1142.9283      	1142.9882      	1142.9313      	1142.962       	1142.9215      	1143.0077      	1142.891       	
1142.9597      	1142.9088      	1142.9152      	1142.9202      	1142.69        	1142.9448      	1143.0427      	1142.9513      	1143.0247      	1142.9413      	1142.9702      	1142.95        	1142.9811      	1142.9788      	1142.98        	1143.029       	1142.9481      	1142.9518      	1142.9084      	1143.0377      	1142.9839      	1142.9014      	1143.0076      	1142.9767      	1142.979       	1142.9921      	1142.8925      	1142.8279      	1143.1077      	1142.9434      	1142.9542      	1142.9962      	1142.9802      	1143.0331      	1143.0294      	1142.9026      	1143.003       	1143.0007      	1142.9825      	1143.0072      	1143.0199      	1142.9858      	1142.9702      	1142.9299      	1143.0121      	1142.9532      	1142.9613      	1142.9065      	1143.0205      	1142.9006      	1142.965       	1142.9172      	1142.9731      	1142.9431      	1142.9254      	1143.0686      	1142.995       	1142.9878      	1142.9749      	1143.048       	1143.0334      	1143.129       	1142.8752      	1142.9943      	1143.0591      	1142.9696      	1142.9829      	1143.0054      	1142.9601      	1143.0659      	1142.9644      	1142.9515      	1143.0088      	1142.9666      	1143.0253      	1143.0084      	1142.9159      	1142.9803      	1142.965       	1142.9797      	1142.8446      	1143.0123      	1142.967       	1142.8363      	1142.9999      	1142.9333      	1142.9285      	1142.883       	1142.8977      	1142.9174      	1142.9238      	1142.9292      	1142.916       	1142.8707      	1142.8835      	1142.9358      	1142.8013      	1142.9543      	1142.8699      	1142.89        	
1143.0295      	1142.8778      	1142.9745      	1143.1844      	1143.0867      	1143.0812      	1143.046       	1142.9932      	1143.0626      	1143.0632      	1142.9805      	1142.9858      	1143.0359      	1143.0146      	1143.0409      	1143.0138      	1143.0278      	1143.0206      	1142.983       	1142.9956      	1142.9617      	1142.9995      	1143.0737      	1142.9716      	1142.9584      	1142.9777      	1142.9451      	1143.041       	1142.9922      	1142.9773      	1142.952       	1143.0181      	1143.0297      	1143.0233      	1142.9347      	1143.0504      	1143.089       	1143.0044      	1143.0002      	1143.069       	1143.046       	1143.0453      	1143.038       	1142.9645      	1143.0215      	1142.9775      	1142.9747      	1142.995       	1143.0027      	1142.9244      	1143.0753      	1142.886       	1142.8492      	1143.0396      	1142.9569      	1142.9897      	1143.0131      	1142.9933      	1143.0072      	1142.9592      	1143.0234      	1142.9683      	1143.045       	1143.0887      	1142.9917      	1143.0345      	1142.897       	1143.0688      	1143.0471      	1142.9292      	1143.0679      	1143.073       	1142.9335      	1143.0764      	1142.905       	1143.0093      	1142.986       	1143.0114      	1142.9031      	1142.9896      	1142.9185      	1142.9757      	1142.9705      	1142.9666      	1142.9193      	1142.9702      	1142.9323      	1142.8894      	1143.0155      	1142.9369      	1142.9308      	1142.9817      	1142.91        	1142.9485      	1143.0032      	1142.9468      	1142.9783      	1142.9182      	1143.0564      	1142.9928      	
1143.1376      	1143.1239      	1143.1302      	1143.1926      	1143.089       	1143.0623      	1143.2205      	1143.0259      	1143.3005      	1143.0021      	1143.1716      	1143.0278      	1143.0931      	1143.1095      	1143.1238      	1143.0723      	1143.1078      	1143.0161      	1143.1157      	1143.0428      	1143.1274      	1143.0461      	1143.0502      	1143.0962      	1143.0098      	1143.1086      	1143.1033      	1143.1216      	1143.1082      	1143.1464      	1143.0745      	1143.1663      	1143.1106      	1143.1375      	1143.1144      	1143.1321      	1143.0603      	1143.2268      	1143.1144      	1143.0913      	1143.1447      	1143.1069      	1143.1053      	1143.0831      	1143.1632      	1143.0709      	1143.1073      	1143.1512      	1143.1294      	1143.122       	1143.1073      	1143.1162      	1143.131       	1143.1261      	1143.1367      	1143.0767      	1143.2157      	1143.113       	1143.111       	1143.2084      	1143.1187      	1143.1698      	1143.1442      	1143.103       	1143.1371      	1143.0985      	1143.051       	1143.1653      	1143.1017      	1143.1179      	1143.1652      	1143.112       	1143.178       	1143.144       	1143.0219      	1143.1876      	1143.0824      	1143.1248      	1143.166       	1143.1285      	1143.1428      	1143.0948      	1143.096       	1143.0858      	1143.0479      	1143.0927      	1143.0858      	1143.0698      	1143.052       	1143.0657      	1143.0883      	1143.0902      	1143.0643      	1143.116       	1143.1497      	1143.0725      	1143.1255      	1143.0808      	1143.1415      	1143.1218      	
1143.4485      	1143.4344      	1143.3846      	1143.2937      	1143.382       	1143.4456      	1143.3873      	1143.4591      	1143.4377      	1143.4054      	1143.4072      	1143.3354      	1143.3795      	1143.4495      	1143.3676      	1143.3534      	1143.3917      	1143.3055      	1143.404       	1143.3674      	1143.3423      	1143.3748      	1143.4176      	1143.3936      	1143.329       	1143.4407      	1143.3605      	1143.4037      	1143.3679      	1143.4733      	1143.3962      	1143.2911      	1143.4847      	1143.3413      	1143.4972      	1143.4177      	1143.4463      	1143.4369      	1143.4236      	1143.4735      	1143.4143      	1143.4158      	1143.3484      	1143.3843      	1143.4231      	1143.3201      	1143.3853      	1143.4503      	1143.1619      	1143.4346      	1143.4543      	1143.3513      	1143.4401      	1143.3939      	1143.3868      	1143.4478      	1143.437       	1143.428       	1143.3922      	1143.4343      	1143.4698      	1143.4154      	1143.4684      	1143.4806      	1143.4628      	1143.5226      	1143.4867      	1143.416       	1143.5298      	1143.504       	1143.4634      	1143.3552      	1143.4902      	1143.401       	1143.4108      	1143.3798      	1143.3629      	1143.4573      	1143.34        	1143.416       	1143.3955      	1143.3489      	1143.3252      	1143.4225      	1143.4205      	1143.3185      	1143.322       	1143.42        	1143.3386      	1143.3601      	1143.3025      	1143.411       	1143.3881      	1143.3276      	1143.3652      	1143.3562      	1143.3367      	1143.3977      	1143.3811      	1143.4514      	
1143.5889      	1143.5922      	1143.5758      	1143.4598      	1143.563       	1143.5125      	1143.6924      	1143.6195      	1143.5159      	1143.5795      	1143.5636      	1143.5369      	1143.5173      	1143.4972      	1143.544       	1143.5813      	1143.5288      	1143.5096      	1143.5142      	1143.5317      	1143.4896      	1143.5448      	1143.5354      	1143.5106      	1143.4865      	1143.4532      	1143.6298      	1143.5787      	1143.5553      	1143.5261      	1143.5497      	1143.5366      	1143.5259      	1143.5333      	1143.551       	1143.5269      	1143.5458      	1143.5804      	1143.5741      	1143.5702      	1143.6124      	1143.599       	1143.5005      	1143.5891      	1143.5406      	1143.4675      	1143.6418      	1143.5001      	1143.4215      	1143.3677      	1143.6069      	1143.5824      	1143.5123      	1143.51        	1143.5763      	1143.5853      	1143.5945      	1143.5195      	1143.4972      	1143.5884      	1143.5499      	1143.5256      	1143.5444      	1143.5862      	1143.5468      	1143.5376      	1143.6296      	1143.525       	1143.5011      	1143.5803      	1143.5217      	1143.5701      	1143.5254      	1143.4579      	1143.469       	1143.507       	1143.4287      	1143.491       	1143.5374      	1143.5121      	1143.4291      	1143.4607      	1143.4827      	1143.4263      	1143.5155      	1143.4335      	1143.4282      	1143.4747      	1143.4503      	1143.5504      	1143.4104      	1143.4648      	1143.467       	1143.4558      	1143.4532      	1143.4338      	1143.5623      	1143.4518      	1143.5168      	1143.5038      	
1143.5125      	1143.4553      	1143.4213      	1143.3237      	1143.5295      	1143.4766      	1143.5232      	1143.444       	1143.4357      	1143.5066      	1143.4836      	1143.4069      	1143.4099      	1143.4387      	1143.452       	1143.4087      	1143.4119      	1143.4984      	1143.4238      	1143.3544      	1143.5017      	1143.4465      	1143.3947      	1143.4358      	1143.4714      	1143.4753      	1143.3691      	1143.3895      	1143.4309      	1143.4672      	1143.4395      	1143.4747      	1143.3994      	1143.4553      	1143.4781      	1143.4448      	1143.4155      	1143.403       	1143.4069      	1143.4766      	1143.4109      	1143.3842      	1143.4698      	1143.4078      	1143.4153      	1143.4119      	1143.4073      	1143.5267      	1143.2596      	1143.4521      	1143.513       	1143.3972      	1143.3337      	1143.3918      	1143.4453      	1143.4161      	1143.5125      	1143.5375      	1143.4277      	1143.4337      	1143.4415      	1143.3983      	1143.4467      	1143.3817      	1143.4075      	1143.4019      	1143.3788      	1143.4755      	1143.3849      	1143.4379      	1143.3966      	1143.3806      	1143.4023      	1143.3872      	1143.3044      	1143.3937      	1143.3175      	1143.2983      	1143.366       	1143.3755      	1143.3378      	1143.3054      	1143.3329      	1143.2522      	1143.38        	1143.3071      	1143.3326      	1143.2784      	1143.2883      	1143.3733      	1143.3528      	1143.2411      	1143.3191      	1143.3904      	1143.313       	1143.3176      	1143.3047      	1143.3732      	1143.3118      	1143.344       	
1143.4452      	1143.348       	1143.3728      	1143.354       	1143.3566      	1143.3751      	1143.3025      	1143.3503      	1143.3044      	1143.4034      	1143.3381      	1143.3267      	1143.3138      	1143.3186      	1143.38        	1143.2952      	1143.3639      	1143.3186      	1143.358       	1143.3131      	1143.328       	1143.3019      	1143.283       	1143.3728      	1143.311       	1143.2681      	1143.4641      	1143.2896      	1143.3561      	1143.3511      	1143.3801      	1143.3776      	1143.3026      	1143.3795      	1143.2723      	1143.3674      	1143.3325      	1143.3583      	1143.2893      	1143.3289      	1143.3118      	1143.2961      	1143.3364      	1143.2733      	1143.2715      	1143.325       	1143.215       	1143.3242      	1143.3071      	1143.269       	1143.3152      	1143.3131      	1143.3347      	1143.2936      	1143.3687      	1143.2821      	1143.2859      	1143.3276      	1143.2963      	1143.3633      	1143.346       	1143.3066      	1143.3284      	1143.1705      	1143.4641      	1143.2518      	1143.3348      	1143.265       	1143.2888      	1143.2365      	1143.2949      	1143.2335      	1143.2312      	1143.2697      	1143.2319      	1143.238       	1143.2302      	1143.1808      	1143.2565      	1143.2238      	1143.2534      	1143.1952      	1143.2092      	1143.2075      	1143.2098      	1143.2057      	1143.1975      	1143.1919      	1143.2333      	1143.2286      	1143.2441      	1143.2167      	1143.2424      	1143.2723      	1143.2219      	1143.2633      	1143.2499      	1143.2356      	1143.2235      	1143.2662      	
1143.3114      	1143.3345      	1143.3232      	1143.1864      	1143.2219      	1143.31        	1143.3127      	1143.2853      	1143.3314      	1143.218       	1143.289       	1143.3146      	1143.2142      	1143.2646      	1143.2698      	1143.1737      	1143.3416      	1143.3059      	1143.2518      	1143.2771      	1143.2831      	1143.2771      	1143.2915      	1143.308       	1143.2678      	1143.3021      	1143.3605      	1143.3146      	1143.3065      	1143.3229      	1143.293       	1143.2585      	1143.2858      	1143.3254      	1143.2716      	1143.3031      	1143.324       	1143.3507      	1143.2511      	1143.2628      	1143.233       	1143.3176      	1143.2456      	1143.2014      	1143.2593      	1143.2574      	1143.2605      	1143.2552      	1143.2104      	1143.2992      	1143.3192      	1143.2738      	1143.2808      	1143.3315      	1143.3058      	1143.3054      	1143.2734      	1143.342       	1143.263       	1143.3407      	1143.2958      	1143.2798      	1143.2491      	1143.2656      	1143.2288      	1143.2969      	1143.2378      	1143.2578      	1143.2795      	1143.2566      	1143.2632      	1143.1602      	1143.1776      	1143.2283      	1143.2026      	1143.1368      	1143.093       	1143.258       	1143.1875      	1143.1978      	1143.2004      	1143.1011      	1143.1302      	1143.2664      	1143.22        	1143.1478      	1143.245       	1143.1925      	1143.2091      	1143.2378      	1143.2549      	1143.2644      	1143.2595      	1143.1958      	1143.2498      	1143.1765      	1143.3485      	1143.3984      	1143.253       	1143.3235      	
1143.3337      	1143.2908      	1143.2412      	1143.1926      	1143.2671      	1143.3081      	1143.3087      	1143.2206      	1143.2992      	1143.2498      	1143.2227      	1143.2428      	1143.2404      	1143.2463      	1143.2653      	1143.2952      	1143.2678      	1143.2568      	1143.2501      	1143.2781      	1143.2893      	1143.2737      	1143.2756      	1143.3055      	1143.2766      	1143.3518      	1143.2883      	1143.2849      	1143.2961      	1143.3009      	1143.2726      	1143.2517      	1143.3019      	1143.2708      	1143.2958      	1143.272       	1143.2611      	1143.2097      	1143.329       	1143.3107      	1143.2473      	1143.2683      	1143.3513      	1143.2908      	1143.2603      	1143.2593      	1143.3632      	1143.3175      	1143.2827      	1143.3025      	1143.2819      	1143.2925      	1143.3153      	1143.282       	1143.3358      	1143.3237      	1143.2825      	1143.2552      	1143.364       	1143.3666      	1143.2546      	1143.3481      	1143.2888      	1143.351       	1143.2715      	1143.2429      	1143.3381      	1143.2156      	1143.281       	1143.2596      	1143.2854      	1143.257       	1143.2512      	1143.2819      	1143.2389      	1143.3378      	1143.1184      	1143.2959      	1143.354       	1143.2324      	1143.2854      	1143.2422      	1143.3123      	1143.3081      	1143.2935      	1143.263       	1143.3306      	1143.1661      	1143.3605      	1143.3562      	1143.296       	1143.3046      	1143.2533      	1143.331       	1143.3167      	1143.288       	1143.3702      	1143.3286      	1143.2947      	1143.3523      	
1143.391       	1143.4073      	1143.3854      	1143.418       	1143.3605      	1143.3384      	1143.324       	1143.3513      	1143.4004      	1143.4221      	1143.3424      	1143.3546      	1143.379       	1143.31        	1143.3896      	1143.3839      	1143.3647      	1143.4042      	1143.4286      	1143.3259      	1143.4165      	1143.4155      	1143.4575      	1143.4432      	1143.4095      	1143.4376      	1143.4706      	1143.3446      	1143.3722      	1143.526       	1143.4186      	1143.4427      	1143.3635      	1143.4443      	1143.396       	1143.3796      	1143.4529      	1143.3607      	1143.4441      	1143.3807      	1143.4188      	1143.4097      	1143.3645      	1143.411       	1143.338       	1143.3699      	1143.3696      	1143.3726      	1143.4604      	1143.3347      	1143.4595      	1143.3258      	1143.3362      	1143.5433      	1143.3853      	1143.4163      	1143.4054      	1143.4077      	1143.4172      	1143.3608      	1143.4471      	1143.328       	1143.4587      	1143.3647      	1143.4208      	1143.3832      	1143.4231      	1143.3632      	1143.4467      	1143.3829      	1143.391       	1143.4429      	1143.207       	1143.2753      	1143.2767      	1143.1521      	1143.1265      	1142.9519      	1143.6171      	1143.3849      	1143.4912      	1143.4716      	1143.426       	1143.3998      	1143.4172      	1143.3318      	1143.4641      	1143.4182      	1143.4358      	1143.4122      	1143.4171      	1143.3855      	1143.4497      	1143.4741      	1143.3859      	1143.3625      	1143.5347      	1143.4591      	1143.5087      	1143.5122      	
1143.5321      	1143.548       	1143.5546      	1143.5717      	1143.536       	1143.559       	1143.5308      	1143.5321      	1143.5496      	1143.5275      	1143.496       	1143.5491      	1143.5319      	1143.4995      	1143.5762      	1143.4236      	1143.6431      	1143.4972      	1143.5869      	1143.4615      	1143.6039      	1143.5925      	1143.5701      	1143.5549      	1143.6536      	1143.5897      	1143.6755      	1143.5675      	1143.6511      	1143.5848      	1143.5728      	1143.6473      	1143.683       	1143.6432      	1143.5358      	1143.6161      	1143.5497      	1143.5188      	1143.6041      	1143.535       	1143.6278      	1143.6218      	1143.608       	1143.5374      	1143.6232      	1143.5566      	1143.5269      	1143.5486      	1143.699       	1143.5457      	1143.6521      	1143.5897      	1143.6161      	1143.5662      	1143.5848      	1143.6193      	1143.545       	1143.6382      	1143.5697      	1143.577       	1143.6573      	1143.5713      	1143.5695      	1143.6521      	1143.5564      	1143.4791      	1143.5708      	1143.7361      	1143.4984      	1143.5366      	1143.6453      	1143.6628      	1143.718       	1143.6133      	1143.5975      	1143.4702      	1143.4572      	1143.2909      	1143.0057      	1143.6443      	1143.5519      	1143.5208      	1143.5155      	1143.5553      	1143.506       	1143.5564      	1143.5066      	1143.4722      	1143.6234      	1143.5133      	1143.6368      	1143.5548      	1143.6073      	1143.6248      	1143.5446      	1143.5592      	1143.5295      	1143.6558      	1143.6099      	1143.5787      	
1143.6179      	1143.5682      	1143.572       	1143.5896      	1143.574       	1143.5505      	1143.5632      	1143.563       	1143.5616      	1143.5471      	1143.5364      	1143.6022      	1143.6544      	1143.4642      	1143.5978      	1143.515       	1143.6056      	1143.5442      	1143.5804      	1143.5835      	1143.5516      	1143.5996      	1143.6162      	1143.6317      	1143.6417      	1143.5581      	1143.5239      	1143.6107      	1143.5425      	1143.6384      	1143.5623      	1143.584       	1143.5609      	1143.5234      	1143.6464      	1143.5239      	1143.6014      	1143.5037      	1143.4897      	1143.5802      	1143.5433      	1143.5377      	1143.5751      	1143.5371      	1143.5265      	1143.5188      	1143.4878      	1143.488       	1143.6178      	1143.548       	1143.6567      	1143.5377      	1143.597       	1143.6022      	1143.5526      	1143.6268      	1143.586       	1143.5612      	1143.5651      	1143.5574      	1143.5344      	1143.5558      	1143.5822      	1143.5574      	1143.5208      	1143.59        	1143.7825      	1143.6268      	1143.5483      	1143.6471      	1143.6222      	1143.5466      	1143.5325      	1143.6108      	1143.4937      	1143.4738      	1143.48        	1143.2584      	1142.8209      	1143.55        	1143.4761      	1143.5264      	1143.577       	1143.5005      	1143.4957      	1143.5466      	1143.5143      	1143.6265      	1143.5193      	1143.5181      	1143.493       	1143.5032      	1143.5398      	1143.6041      	1143.533       	1143.507       	1143.5483      	1143.5823      	1143.5468      	1143.4973      	
1143.6083      	1143.5966      	1143.573       	1143.4813      	1143.498       	1143.5493      	1143.5935      	1143.4974      	1143.5754      	1143.5892      	1143.5575      	1143.5774      	1143.5505      	1143.5483      	1143.4702      	1143.5435      	1143.6056      	1143.5479      	1143.6322      	1143.653       	1143.6145      	1143.6111      	1143.6615      	1143.6646      	1143.676       	1143.6069      	1143.6663      	1143.6716      	1143.6179      	1143.6486      	1143.6827      	1143.6317      	1143.5735      	1143.6335      	1143.6423      	1143.6886      	1143.6522      	1143.581       	1143.6031      	1143.587       	1143.6876      	1143.5931      	1143.6216      	1143.6184      	1143.628       	1143.5463      	1143.6569      	1143.6487      	1143.6952      	1143.6204      	1143.601       	1143.6476      	1143.5887      	1143.6499      	1143.6539      	1143.6008      	1143.5118      	1143.7622      	1143.6411      	1143.6382      	1143.778       	1143.6692      	1143.7         	1143.7915      	1143.7375      	1143.655       	1143.6818      	1143.5988      	1143.6505      	1143.6467      	1143.5963      	1143.6079      	1143.6135      	1143.5652      	1143.5901      	1143.5681      	1143.629       	1143.2747      	1143.2118      	1143.0059      	1143.7509      	1143.6101      	1143.5184      	1143.5659      	1143.5798      	1143.5895      	1143.5342      	1143.6339      	1143.6033      	1143.6035      	1143.6327      	1143.5862      	1143.6921      	1143.7296      	1143.6477      	1143.6652      	1143.6671      	1143.6509      	1143.5459      	1143.7246      	
1143.565       	1143.5791      	1143.5276      	1143.5425      	1143.5903      	1143.5955      	1143.5737      	1143.4933      	1143.5748      	1143.5773      	1143.5852      	1143.5569      	1143.5345      	1143.5917      	1143.5385      	1143.5891      	1143.6027      	1143.537       	1143.609       	1143.5917      	1143.5809      	1143.595       	1143.5034      	1143.5737      	1143.553       	1143.495       	1143.4695      	1143.6471      	1143.5421      	1143.5673      	1143.5686      	1143.5546      	1143.5421      	1143.5073      	1143.5267      	1143.5579      	1143.4895      	1143.514       	1143.6062      	1143.4691      	1143.5436      	1143.5444      	1143.4917      	1143.512       	1143.5725      	1143.5024      	1143.5339      	1143.4423      	1143.5625      	1143.4956      	1143.5198      	1143.5806      	1143.5737      	1143.51        	1143.5343      	1143.6903      	1143.742       	1143.6199      	1143.5474      	1143.6665      	1143.5505      	1143.5835      	1143.5828      	1143.5275      	1143.473       	1143.4945      	1143.5187      	1143.5135      	1143.4933      	1143.4685      	1143.488       	1143.5464      	1143.5237      	1143.5333      	1143.5441      	1143.5178      	1143.469       	1143.3009      	1143.0708      	1143.0557      	1143.4949      	1143.5568      	1143.5522      	1143.4841      	1143.5442      	1143.5051      	1143.5653      	1143.5497      	1143.5284      	1143.5201      	1143.6311      	1143.6149      	1143.6212      	1143.5886      	1143.6047      	1143.6125      	1143.6315      	1143.6116      	1143.5951      	1143.6847      	
1143.5288      	1143.5109      	1143.4673      	1143.5647      	1143.5526      	1143.4904      	1143.5845      	1143.5164      	1143.5477      	1143.5905      	1143.5447      	1143.5774      	1143.6233      	1143.6737      	1143.6262      	1143.5869      	1143.6316      	1143.5806      	1143.6055      	1143.6567      	1143.6073      	1143.5852      	1143.5897      	1143.5707      	1143.6395      	1143.6069      	1143.6135      	1143.6068      	1143.5656      	1143.5626      	1143.6027      	1143.6072      	1143.574       	1143.621       	1143.5958      	1143.5757      	1143.5444      	1143.5925      	1143.5151      	1143.5663      	1143.6227      	1143.517       	1143.6575      	1143.5442      	1143.6404      	1143.528       	1143.6053      	1143.5575      	1143.609       	1143.6423      	1143.6752      	1143.7196      	1143.7246      	1143.8037      	1143.6406      	1143.7085      	1143.7483      	1143.6837      	1143.6067      	1143.6536      	1143.6085      	1143.5919      	1143.594       	1143.565       	1143.4739      	1143.6472      	1143.5981      	1143.5897      	1143.538       	1143.561       	1143.5586      	1143.5323      	1143.6177      	1143.5892      	1143.5862      	1143.6029      	1143.5831      	1143.4418      	1143.1443      	1143.3292      	1143.2515      	1143.7557      	1143.5126      	1143.6166      	1143.5281      	1143.5638      	1143.6166      	1143.5944      	1143.5894      	1143.622       	1143.594       	1143.5038      	1143.7224      	1143.6366      	1143.5753      	1143.7278      	1143.591       	1143.702       	1143.6799      	1143.6611      	
1143.6631      	1143.6633      	1143.6812      	1143.6995      	1143.6395      	1143.7007      	1143.7152      	1143.7075      	1143.6575      	1143.6907      	1143.7241      	1143.7153      	1143.7147      	1143.7662      	1143.7039      	1143.7262      	1143.7294      	1143.697       	1143.8326      	1143.7518      	1143.698       	1143.7181      	1143.6685      	1143.6614      	1143.7749      	1143.7617      	1143.7577      	1143.7537      	1143.7043      	1143.7097      	1143.7079      	1143.7115      	1143.7458      	1143.7147      	1143.6711      	1143.7169      	1143.6813      	1143.6674      	1143.7675      	1143.6866      	1143.7365      	1143.715       	1143.757       	1143.7382      	1143.8085      	1143.7543      	1143.6613      	1143.8358      	1143.7272      	1143.8892      	1143.9957      	1143.8933      	1143.8396      	1143.8622      	1143.78        	1143.7651      	1143.8638      	1143.7491      	1143.7676      	1143.7238      	1143.7335      	1143.6733      	1143.705       	1143.6932      	1143.724       	1143.6754      	1143.7096      	1143.6261      	1143.696       	1143.6687      	1143.7101      	1143.7803      	1143.6757      	1143.6659      	1143.8024      	1143.7258      	1143.5522      	1143.7448      	1143.4349      	1143.4423      	1143.2185      	1143.895       	1143.7826      	1143.7483      	1143.6823      	1143.7466      	1143.7378      	1143.7374      	1143.8014      	1143.7727      	1143.7603      	1143.7771      	1143.8263      	1143.6935      	1143.852       	1143.7899      	1143.8049      	1143.8423      	1143.7794      	1143.8267      	
1143.8497      	1143.8116      	1143.7422      	1143.8407      	1143.8523      	1143.8046      	1143.8154      	1143.8396      	1143.8651      	1143.8475      	1143.8953      	1143.8212      	1143.8811      	1143.8448      	1143.8046      	1143.8888      	1143.8685      	1143.8695      	1143.9238      	1143.8629      	1143.872       	1143.8823      	1143.9121      	1143.8739      	1143.9082      	1143.9314      	1143.8372      	1143.8684      	1143.846       	1143.9767      	1143.8073      	1143.8595      	1143.998       	1143.9908      	1143.8435      	1143.8497      	1143.9552      	1143.8599      	1143.8253      	1143.98        	1143.877       	1143.8228      	1143.8875      	1143.8169      	1144.0237      	1144.0024      	1144.1691      	1143.993       	1143.9318      	1143.969       	1143.9779      	1143.9818      	1143.9127      	1143.8478      	1143.8949      	1143.8632      	1143.9111      	1143.8217      	1143.8464      	1143.8958      	1143.7806      	1143.8329      	1143.8416      	1143.819       	1143.8171      	1143.7648      	1143.8114      	1143.8615      	1143.8229      	1143.7589      	1143.8647      	1143.8252      	1143.8169      	1143.8777      	1143.7742      	1144.0159      	1143.7856      	1143.5697      	1143.7998      	1143.2799      	1143.4779      	1144           	1143.8276      	1143.86        	1143.8579      	1143.8541      	1143.8032      	1143.9753      	1143.8972      	1143.9302      	1143.8711      	1143.872       	1143.9052      	1143.9286      	1143.9031      	1143.9187      	1143.9757      	1143.908       	1143.9388      	1143.9845      	
1143.9364      	1143.9143      	1143.961       	1143.9503      	1143.9034      	1144.0026      	1143.9431      	1143.9613      	1143.9738      	1143.966       	1144.0145      	1144.0524      	1143.9344      	1143.9612      	1143.9349      	1144.103       	1144.0637      	1144.0222      	1144.038       	1144.0577      	1144.054       	1144.0568      	1144.0227      	1144.036       	1144.0898      	1143.9462      	1144.1185      	1144.039       	1144.0588      	1144.0881      	1144.0288      	1143.9812      	1144.0421      	1144.0575      	1144.0024      	1144.0061      	1144.0312      	1143.9961      	1144.0056      	1143.9686      	1144.0681      	1144.0299      	1144.3402      	1144.2786      	1144.0789      	1144.0599      	1144.1382      	1144.0854      	1144.1155      	1144.0841      	1144.0647      	1144.046       	1144.0604      	1144.1042      	1144.0499      	1144.0519      	1144.0505      	1144.0359      	1144.0925      	1143.9366      	1144.0198      	1143.9885      	1144.0107      	1143.9602      	1144.0378      	1143.9557      	1144.0027      	1143.979       	1144.023       	1143.9963      	1143.9579      	1144.0162      	1143.9559      	1143.9752      	1144.0854      	1143.8816      	1144.0697      	1143.8198      	1143.8148      	1143.6913      	1143.6675      	1144.0354      	1144.0468      	1144.06        	1144.0363      	1144.0265      	1144.0464      	1144.0929      	1144.1427      	1144.0281      	1144.0018      	1144.0607      	1144.08        	1144.1177      	1144.0713      	1144.0685      	1144.1239      	1144.0403      	1144.0991      	1144.082       	
1144.2474      	1144.2188      	1144.1815      	1144.2151      	1144.219       	1144.198       	1144.1796      	1144.3572      	1144.3015      	1144.2722      	1144.3035      	1144.304       	1144.2693      	1144.2445      	1144.3608      	1144.2875      	1144.4142      	1144.4136      	1144.3911      	1144.3973      	1144.1931      	1144.2141      	1144.4374      	1144.3739      	1144.4116      	1144.4141      	1144.2518      	1144.3788      	1144.4401      	1144.3573      	1144.3722      	1144.3368      	1144.3816      	1144.354       	1144.3772      	1144.3379      	1144.3599      	1144.3401      	1144.4104      	1144.3807      	1144.4734      	1144.8258      	1144.5842      	1144.593       	1144.4347      	1144.4019      	1144.475       	1144.452       	1144.3729      	1144.5226      	1144.3715      	1144.4277      	1144.3885      	1144.4205      	1144.377       	1144.4442      	1144.423       	1144.3972      	1144.396       	1144.4167      	1144.3179      	1144.3878      	1144.4058      	1144.3987      	1144.3944      	1144.3975      	1144.4418      	1144.362       	1144.3865      	1144.505       	1144.4396      	1144.3684      	1144.4299      	1144.5015      	1144.3967      	1144.4441      	1144.4802      	1144.3767      	1144.2781      	1144.0333      	1144.2026      	1144.2583      	1144.5514      	1144.536       	1144.4719      	1144.5007      	1144.5311      	1144.5432      	1144.5571      	1144.5792      	1144.5566      	1144.5627      	1144.5391      	1144.553       	1144.618       	1144.5583      	1144.5511      	1144.6361      	1144.5515      	1144.5077      	
1144.7251      	1144.7542      	1144.7645      	1144.737       	1144.7817      	1144.8013      	1144.8158      	1144.8054      	1144.774       	1144.8158      	1144.8777      	1144.8342      	1144.7374      	1144.8842      	1144.9048      	1144.8202      	1144.8477      	1144.8651      	1144.8229      	1144.9141      	1144.924       	1144.7897      	1144.8584      	1144.9491      	1144.878       	1144.824       	1144.9294      	1144.8533      	1144.8531      	1144.8706      	1144.8362      	1144.8921      	1144.848       	1144.9132      	1144.8202      	1144.9288      	1144.92        	1144.882       	1144.9469      	1144.9486      	1145.1368      	1145.2556      	1145.1124      	1145.0688      	1144.9957      	1145.0513      	1144.9053      	1144.9353      	1144.9778      	1145.0176      	1144.9302      	1144.9491      	1144.9923      	1144.9635      	1144.9484      	1144.925       	1145.0021      	1144.9509      	1144.8381      	1144.9764      	1144.9734      	1144.897       	1144.9396      	1144.9398      	1144.9907      	1144.9154      	1144.895       	1144.9764      	1144.9095      	1144.8987      	1144.9926      	1144.9233      	1144.8647      	1145.0027      	1144.9556      	1145.0089      	1144.9796      	1144.9846      	1144.8505      	1144.6173      	1144.5333      	1144.945       	1145.0336      	1144.9518      	1145.0416      	1145.0408      	1145.0483      	1145.0565      	1145.0223      	1144.9415      	1145.1544      	1145.0442      	1145.0275      	1145.0511      	1145.0812      	1145.06        	1145.0925      	1145.0673      	1145.1365      	1145.0873      	
1145.1893      	1145.1616      	1145.1041      	1145.1512      	1145.1962      	1145.1753      	1145.2028      	1145.1313      	1145.2108      	1145.2352      	1145.2144      	1145.1799      	1145.2357      	1145.2013      	1145.1995      	1145.146       	1145.2683      	1145.1781      	1145.2041      	1145.2563      	1145.2736      	1145.2527      	1145.1912      	1145.2725      	1145.2515      	1145.2267      	1145.1934      	1145.1991      	1145.1818      	1145.2169      	1145.2119      	1145.1788      	1145.1635      	1145.2322      	1145.2251      	1145.1938      	1145.2075      	1145.2515      	1145.2406      	1145.254       	1145.2842      	1145.5774      	1145.3689      	1145.4004      	1145.3304      	1145.2375      	1145.261       	1145.1802      	1145.2837      	1145.26        	1145.2196      	1145.3368      	1145.1863      	1145.2418      	1145.2483      	1145.1656      	1145.2916      	1145.2313      	1145.087       	1145.0663      	1145.3416      	1145.1896      	1145.2135      	1145.1936      	1145.2616      	1145.1868      	1145.1627      	1145.2048      	1145.188       	1145.2017      	1145.2266      	1145.2395      	1145.2656      	1145.2631      	1145.2678      	1145.2943      	1145.3292      	1145.2202      	1145.1893      	1145.0323      	1144.7797      	1144.8939      	1145.4344      	1145.2694      	1145.238       	1145.1514      	1145.3031      	1145.2433      	1145.3108      	1145.1729      	1145.3298      	1145.1926      	1145.25        	1145.2434      	1145.1339      	1145.3173      	1145.2843      	1145.2186      	1145.2332      	1145.274       	
1145.0253      	1144.9994      	1144.9803      	1145.0458      	1145.0406      	1145.0172      	1145.0527      	1145.072       	1145.1191      	1145.0981      	1145.0911      	1145.1683      	1145.1024      	1145.058       	1145.1465      	1145.0665      	1145.1648      	1145.1274      	1145.0857      	1145.06        	1145.1969      	1145.0912      	1145.0754      	1145.1082      	1145.0765      	1145.1057      	1145.1173      	1145.0732      	1145.0695      	1145.0706      	1145.0597      	1145.0349      	1145.1005      	1145.0519      	1145.0603      	1145.0946      	1145.0985      	1145.0461      	1145.0951      	1145.0536      	1145.1271      	1145.4634      	1145.3029      	1145.272       	1145.2263      	1145.1643      	1145.1736      	1145.117       	1145.0848      	1145.1367      	1145.0419      	1145.1113      	1145.1421      	1145.0415      	1145.076       	1145.0747      	1145.0074      	1145.0854      	1145.1145      	1145.0485      	1144.9657      	1145.1069      	1145.0139      	1145.0027      	1145.0819      	1145.0537      	1144.9951      	1145.1388      	1144.9612      	1145.0978      	1145.0995      	1145.0688      	1145.0603      	1145.0958      	1145.0364      	1145.0901      	1145.044       	1145.0818      	1145.0135      	1144.9323      	1144.5979      	1144.6298      	1145.1542      	1145.2267      	1145.1359      	1145.0557      	1145.1355      	1145.1738      	1145.1171      	1145.0759      	1145.2443      	1145.1995      	1145.1343      	1145.0784      	1145.1599      	1145.1302      	1145.058       	1145.2035      	1145.0929      	1145.1028      	
1144.9243      	1144.9111      	1144.899       	1144.9081      	1144.9279      	1144.9652      	1144.8865      	1144.9714      	1144.9163      	1144.9479      	1144.9148      	1145.0157      	1144.9331      	1144.988       	1144.9064      	1145.0208      	1144.9413      	1144.9504      	1145.0339      	1144.9448      	1144.9255      	1145.0057      	1145.0125      	1144.9886      	1145.0018      	1144.9358      	1145.0564      	1144.9087      	1144.986       	1144.9745      	1144.8679      	1145.0321      	1144.9872      	1144.8307      	1144.8799      	1144.8319      	1144.8093      	1144.9003      	1144.8651      	1144.9288      	1145.0254      	1145.3833      	1145.185       	1145.1926      	1145.1523      	1145.0854      	1145.044       	1145.0464      	1145.1299      	1144.9973      	1145.1659      	1145.0424      	1144.9824      	1145.0186      	1145.022       	1145.0042      	1144.9983      	1145.064       	1144.9834      	1145.0496      	1144.9823      	1145.0529      	1144.9164      	1144.9901      	1145.0646      	1145.0464      	1145.012       	1144.9734      	1145.1173      	1144.8772      	1145.0563      	1145.1122      	1144.9518      	1145.0486      	1145.0499      	1145.0995      	1145.081       	1145.1158      	1145.1465      	1144.8793      	1144.804       	1144.7423      	1144.9521      	1145.1654      	1145.1436      	1145.1316      	1145.1599      	1145.097       	1145.1682      	1145.1779      	1145.2814      	1145.1372      	1145.0925      	1145.1797      	1145.1731      	1145.1829      	1145.1091      	1145.2042      	1145.1428      	1145.1802      	
1145.078       	1145.0181      	1145.0282      	1145.0382      	1145.0647      	1145.097       	1145.0237      	1145.1006      	1145.0897      	1145.0532      	1145.1224      	1145.1368      	1145.1237      	1145.2397      	1144.9395      	1144.9132      	1144.9006      	1144.7631      	1145.1434      	1145.1935      	1145.1653      	1145.087       	1145.0896      	1145.1891      	1145.0695      	1145.1083      	1145.1965      	1145.0714      	1145.1064      	1145.0934      	1145.1519      	1145.094       	1145.086       	1145.088       	1145.1698      	1145.0728      	1145.1365      	1145.1556      	1145.124       	1145.1382      	1145.1368      	1145.3444      	1145.4077      	1145.2749      	1145.2057      	1145.2297      	1145.1594      	1145.0753      	1145.144       	1145.146       	1145.0929      	1145.1537      	1145.1055      	1145.1603      	1145.0437      	1144.9434      	1145.2206      	1145.0913      	1145.0675      	1145.1583      	1145.0892      	1145.1366      	1145.0702      	1145.0336      	1145.086       	1145.1161      	1145.0927      	1145.102       	1145.1562      	1145.0857      	1145.1641      	1145.0667      	1145.2034      	1145.0569      	1145.1005      	1145.1477      	1145.1158      	1145.1584      	1145.1727      	1145.0115      	1144.8616      	1144.7322      	1144.7578      	1145.3019      	1145.1842      	1145.1846      	1145.1528      	1145.2775      	1145.174       	1145.2101      	1145.197       	1145.1793      	1145.2379      	1145.1476      	1145.188       	1145.1401      	1145.1577      	1145.1615      	1145.1218      	1145.2233      	
1144.8789      	1144.8854      	1144.8423      	1144.7937      	1144.9512      	1144.8685      	1144.8826      	1144.8535      	1144.898       	1144.8226      	1145.0214      	1145.1904      	1145.0773      	1144.9602      	1144.9409      	1144.8014      	1144.7391      	1144.6089      	1144.3682      	1144.9835      	1144.9235      	1144.869       	1144.8809      	1144.8623      	1144.8556      	1144.8555      	1144.7684      	1144.8165      	1144.883       	1144.7971      	1144.7924      	1144.8313      	1144.8181      	1144.7966      	1144.8092      	1144.8475      	1144.8289      	1144.8357      	1144.8105      	1144.7872      	1144.8906      	1145.0333      	1145.1406      	1145.01        	1144.966       	1144.9479      	1144.8533      	1144.8506      	1144.864       	1144.7861      	1144.7664      	1144.8042      	1144.7903      	1144.8252      	1144.7498      	1144.6694      	1144.6232      	1144.9009      	1144.7717      	1144.801       	1144.7498      	1144.7656      	1144.692       	1144.7253      	1144.7476      	1144.6897      	1144.762       	1144.7314      	1144.7101      	1144.8029      	1144.6404      	1144.6378      	1144.839       	1144.7178      	1144.6248      	1144.8322      	1144.696       	1144.7844      	1144.8188      	1144.7283      	1144.5618      	1144.19        	1144.3358      	1144.9563      	1144.7181      	1144.7784      	1144.8052      	1144.8475      	1144.7573      	1144.7578      	1144.7616      	1144.8173      	1144.6603      	1144.8385      	1144.8204      	1144.696       	1144.6733      	1144.7289      	1144.6907      	1144.7776      	
1144.3656      	1144.3497      	1144.2401      	1144.3308      	1144.3706      	1144.7139      	1144.63        	1144.5063      	1144.4445      	1144.4475      	1144.506       	1144.5159      	1144.4106      	1144.4808      	1144.4263      	1144.4152      	1144.2391      	1144.0222      	1143.8279      	1144.5808      	1144.4514      	1144.4507      	1144.4158      	1144.397       	1144.3761      	1144.3253      	1144.4458      	1144.3674      	1144.343       	1144.4333      	1144.3547      	1144.2404      	1144.4326      	1144.4243      	1144.3813      	1144.4008      	1144.4012      	1144.291       	1144.3645      	1144.3292      	1144.3394      	1144.3982      	1144.6359      	1144.4905      	1144.5073      	1144.4379      	1144.3982      	1144.324       	1144.3433      	1144.3134      	1144.2814      	1144.2728      	1144.344       	1144.287       	1144.227       	1144.2109      	1144.2494      	1144.2512      	1144.1561      	1144.2704      	1144.3138      	1144.2479      	1144.2395      	1144.1929      	1144.205       	1144.1831      	1144.1693      	1144.2222      	1144.1565      	1144.2472      	1144.215       	1144.2095      	1144.247       	1144.1771      	1144.2303      	1144.2274      	1144.2137      	1144.3081      	1144.2697      	1144.2085      	1144.0443      	1143.8054      	1143.9349      	1144.2219      	1144.1622      	1144.299       	1144.2135      	1144.1587      	1144.1965      	1144.244       	1144.1688      	1144.1838      	1144.1792      	1144.2048      	1144.2365      	1144.1692      	1144.188       	1144.1528      	1144.1271      	1144.2264      	
1143.9745      	1143.9891      	1143.9965      	1144.0493      	1144.0835      	1144.0161      	1143.9747      	1144.0012      	1143.9646      	1143.949       	1143.9043      	1143.8169      	1143.8632      	1143.9664      	1143.9109      	1143.9432      	1143.7388      	1143.6368      	1143.2014      	1143.4863      	1144.0037      	1143.8456      	1144.104       	1143.9109      	1143.8185      	1143.8767      	1143.8546      	1143.8629      	1143.8441      	1143.839       	1143.8989      	1143.8059      	1143.7444      	1143.874       	1143.8179      	1143.8058      	1143.8754      	1143.8208      	1143.8859      	1143.7786      	1143.8286      	1143.8562      	1144.0251      	1144.1055      	1144.0012      	1143.9935      	1143.8887      	1143.8595      	1143.7769      	1143.8295      	1143.8546      	1143.776       	1143.8458      	1143.753       	1143.854       	1143.7411      	1143.8094      	1143.8319      	1143.6619      	1143.7253      	1143.8806      	1143.8132      	1143.8062      	1143.729       	1143.7924      	1143.7981      	1143.7675      	1143.8463      	1143.7473      	1143.793       	1143.8132      	1143.7733      	1143.8097      	1143.73        	1143.823       	1143.9146      	1143.8569      	1143.8712      	1143.9062      	1143.8634      	1143.7524      	1143.5446      	1143.4917      	1143.7499      	1143.947       	1143.9283      	1143.9036      	1143.8068      	1143.8983      	1143.8319      	1143.8978      	1143.8329      	1143.8746      	1143.8019      	1143.8337      	1143.7683      	1143.8075      	1143.865       	1143.6544      	1143.8105      	
