# www.neaspec.com
# Scan:	 	Whitelight Imaging
# Project:	 	20251007_PS
# Description:	 	
# Date:	 	10/07/2025 13:44:09
# Scanner Center Position (X, Y):	[µm]	49.99	50.01	 
# Rotation:	[°]	0	 	 
# Scan Area (X, Y, Z):	[µm]	5.000	5.000	0.000
# Pixel Area (X, Y, Z):	[px]	100	100	1
# Interferometer Center/Distance:	[µm]	546.342	0.000	 
# Averaging:	 	1	 	 
# Integration time:	[ms]	5	 	 
# Wavenumber Scaling:	 	1.000000	 	 
# Laser Source:	 	4.5-15 µm nano-FTIR laser
# Detector:	 	R
# Target Wavelength:	[µm]	7.502	 	 
# Demodulation Mode:	 	Fourier
# Tip Frequency:	[Hz]	241,340.500	 	 
# Tip Amplitude:	[mV]	45.700	 	 
# Tapping Amplitude:	[nm]	76.624	 	 
# Modulation Frequency:	[Hz]	0.000	 	 
# Modulation Amplitude:	[mV]	0.000	 	 
# Modulation Offset:	[mV]	0.000	 	 
# Setpoint:	[%]	79.75	 	 
# Regulator (P, I, D):	 	4.206850	8.625812	1.000000
# Tip Potential:	[mV]	0.000	 	 
# M1A Scaling:	[nm/V]	0.426	 	 
# M1A Cantilever Factor:	 	1,000	 	 
# Q-Factor:	 	487.4	 	 
# Version:	 	2.1.11536.0
96.106445      	86.34818       	81.7342        	82.49493       	93.55685       	100.20334      	86.95679       	85.0768        	94.52542       	91.55755       	85.99621       	95.69842       	93.53993       	85.62973       	95.52324       	97.27585       	92.62329       	97.978226      	75.011314      	48.62565       	30.261345      	7.399917       	20.852938      	24.215086      	20.967754      	31.812857      	33.487213      	31.118809      	40.29297       	46.18189       	44.986816      	54.610165      	58.80242       	56.506145      	68.04996       	66.72354       	58.063034      	72.18195       	93.67378       	99.59424       	101.818726     	103.42355      	103.45513      	112.80045      	111.46083      	103.62493      	122.82905      	125.05542      	122.309975     	131.92412      	133.52557      	132.89731      	143.71825      	147.06801      	147.59686      	153.57591      	127.83759      	117.62299      	125.81575      	114.13457      	108.19994      	123.86217      	109.90318      	103.98039      	116.300705     	101.46688      	98.07692       	109.39061      	101.18818      	95.22655       	103.724        	98.64973       	98.0791        	98.6555        	98.1115        	97.26033       	99.420906      	95.15142       	100.96791      	103.61815      	83.88333       	95.68188       	106.82719      	85.18366       	91.37718       	96.27677       	83.91122       	92.89978       	97.014145      	86.08203       	91.02304       	98.28638       	83.05814       	95.54955       	94.80079       	80.91314       	90.538055      	95.80786       	87.806046      	90.09227       	
96.52695       	99.59014       	107.51018      	104.790825     	99.696365      	97.52865       	106.62519      	104.10426      	93.36518       	92.45912       	98.04843       	101.67459      	98.392624      	97.86293       	103.78322      	100.61091      	101.08161      	103.96512      	80.2861        	50.20581       	30.23627       	16.486095      	18.32245       	25.361376      	28.468254      	32.41946       	40.564144      	38.798306      	49.563644      	53.24977       	58.4746        	68.2176        	67.93822       	75.375046      	82.94768       	70.395035      	78.40529       	91.12167       	97.485886      	96.84799       	111.69721      	110.69011      	108.69764      	121.06762      	131.29681      	127.00427      	147.40015      	157.42401      	137.10048      	134.41307      	134.25182      	119.99409      	118.89844      	126.66821      	108.24496      	112.38756      	121.35008      	109.489784     	104.50459      	111.785286     	107.844864     	99.76234       	110.34553      	103.05234      	99.48898       	109.573395     	105.52811      	99.44313       	94.98233       	100.890656     	97.41844       	96.014946      	97.5638        	92.95332       	99.935356      	110.82262      	98.11812       	99.370224      	99.292534      	96.70879       	100.415726     	110.615524     	95.397545      	93.92341       	101.26598      	96.19447       	87.94351       	92.90728       	90.1013        	90.41706       	99.01473       	94.472244      	91.982925      	99.09972       	99.8741        	91.26195       	93.28232       	105.54229      	88.28919       	95.89723       	
100.961395     	108.56255      	104.68498      	99.14824       	100.33118      	107.33378      	105.44368      	94.57202       	111.161446     	109.328995     	93.14599       	100.917595     	111.02432      	96.844986      	110.66739      	109.64258      	94.29839       	102.64527      	96.55863       	54.34782       	37.11772       	24.759434      	16.309307      	20.278053      	24.693981      	32.29446       	38.869022      	52.515488      	53.555435      	64.68251       	73.40009       	74.02927       	84.02523       	81.560074      	80.426186      	87.6987        	90.40461       	98.765396      	114.61499      	122.63581      	126.37981      	131.53743      	141.31175      	153.18582      	156.16911      	138.45601      	125.60754      	120.41502      	122.86006      	105.12364      	113.11827      	121.099724     	105.36528      	110.826454     	111.285225     	97.25541       	96.886         	117.23242      	101.36818      	97.563545      	114.55275      	103.9757       	99.23002       	109.82349      	99.858284      	91.466354      	104.60573      	103.19886      	87.4694        	105.47342      	105.99806      	92.02534       	104.052124     	106.315445     	87.746         	95.274864      	100.386665     	100.837036     	110.0569       	104.7871       	89.49594       	105.85158      	100.65792      	86.72273       	96.35902       	99.5941        	81.937485      	94.844795      	100.94725      	83.6138        	93.39551       	102.46977      	91.809845      	99.11131       	97.1219        	88.10893       	92.98531       	94.73945       	86.621666      	87.78454       	
99.39196       	88.34163       	92.5738        	106.49747      	110.0094       	93.3177        	97.44551       	116.15536      	106.206184     	92.375114      	108.01905      	102.80698      	85.630646      	108.68804      	105.82423      	96.912445      	108.13256      	101.82136      	90.97753       	69.20583       	53.435276      	34.146465      	36.503315      	27.215322      	20.986917      	35.99103       	50.60685       	51.50019       	61.175327      	71.68908       	75.7328        	84.04269       	90.46618       	94.34159       	98.579506      	101.016304     	106.20764      	121.92097      	129.47348      	141.85219      	153.121        	129.58298      	121.571236     	124.31083      	111.5417       	114.85877      	120.06225      	112.50218      	112.54466      	110.482574     	106.44144      	104.00865      	110.12476      	102.12036      	99.92445       	105.82686      	100.86336      	93.39655       	104.49649      	107.587845     	102.986336     	98.59372       	110.22547      	100.05009      	100.585686     	103.9152       	94.98245       	90.80885       	99.73135       	96.56832       	89.33206       	100.930984     	93.92729       	89.15124       	100.60249      	104.001465     	88.92949       	99.68074       	102.97881      	93.594154      	101.71669      	96.619514      	88.85529       	102.904976     	90.71158       	84.42581       	98.21505       	90.01492       	82.68412       	98.20975       	95.3388        	82.28478       	85.53227       	98.79623       	89.808556      	99.538124      	95.37127       	86.545204      	95.941925      	92.410736      	
88.09642       	95.64942       	100.43781      	101.12485      	96.27049       	97.13822       	100.84679      	88.85985       	95.53462       	106.7143       	99.55757       	100.04597      	100.5393       	96.30689       	108.59404      	103.09592      	100.68796      	108.982704     	103.34461      	92.497795      	85.03495       	68.0274        	52.15889       	54.34067       	61.67503       	47.09655       	52.09676       	67.32716       	74.03007       	79.65775       	91.5013        	94.998695      	100.038826     	119.12203      	125.21212      	119.227875     	139.1271       	123.871544     	112.127556     	122.5833       	121.92573      	108.910065     	106.084465     	109.57567      	101.87711      	112.99959      	113.2469       	94.61258       	109.33659      	97.30583       	91.61442       	102.50366      	98.751656      	91.95454       	99.31145       	100.17489      	82.38138       	84.54325       	111.92984      	86.002686      	89.75091       	103.452774     	90.17073       	91.91976       	100.33969      	89.372925      	93.220375      	97.69868       	83.08776       	92.04516       	104.151924     	87.60188       	84.796684      	97.07398       	86.41668       	84.54676       	91.39301       	85.98231       	91.59155       	96.57873       	87.72316       	89.25743       	93.613174      	90.18216       	90.92225       	94.14516       	83.511284      	87.40008       	91.669014      	83.4677        	87.0194        	98.80925       	87.56672       	83.982735      	89.23262       	90.796524      	85.8532        	85.88766       	85.69946       	87.63638       	
95.02125       	88.02795       	91.64814       	97.22537       	99.375694      	92.58388       	92.20334       	96.72749       	90.714424      	90.50909       	103.09835      	97.25042       	90.28932       	100.555786     	94.78545       	93.55364       	100.54416      	92.43591       	98.7481        	108.71936      	95.84703       	85.476715      	77.764275      	67.851425      	73.05144       	73.63073       	64.76608       	80.685776      	96.973175      	98.02119       	107.006256     	123.989975     	116.223564     	110.17172      	107.4263       	90.00719       	97.19212       	101.96746      	87.37643       	96.841194      	100.17892      	85.07309       	94.34587       	104.66999      	92.36921       	86.28056       	104.09513      	96.58508       	89.499115      	101.85605      	92.64778       	88.76266       	92.751495      	93.632416      	88.05526       	93.64502       	93.65553       	84.449745      	97.56376       	95.91492       	88.209366      	93.9181        	91.95912       	90.439896      	92.62987       	97.420425      	86.72513       	93.29712       	98.74339       	89.014984      	88.02845       	85.91737       	87.38852       	90.96524       	88.56054       	85.096924      	98.68705       	84.54784       	85.85053       	99.036285      	90.127914      	77.70837       	92.71477       	93.29623       	79.44355       	100.34863      	87.387215      	85.71155       	91.86117       	85.50329       	77.97325       	98.1943        	93.99102       	80.70112       	90.841064      	91.52973       	77.084366      	91.50986       	90.33778       	80.196396      	
96.08137       	92.28263       	87.96392       	88.1718        	93.22493       	95.865776      	87.579605      	91.480865      	93.951675      	89.60738       	93.0063        	100.56246      	103.03698      	97.98357       	94.09498       	102.950485     	96.847466      	99.7083        	104.44737      	103.47282      	100.26405      	105.07125      	97.626915      	86.90824       	87.58228       	94.08127       	93.85589       	111.89766      	116.31628      	100.67657      	94.20672       	102.94145      	100.629395     	87.63665       	100.91517      	96.68241       	89.87842       	90.97519       	89.00262       	101.01245      	98.212555      	88.39588       	90.16253       	94.8962        	89.512505      	85.75019       	88.10853       	90.28326       	88.859604      	84.92055       	90.78887       	94.50957       	86.64903       	98.34925       	88.98966       	81.27392       	85.868965      	91.75717       	79.10853       	89.361984      	95.4566        	84.3591        	89.66143       	93.487656      	86.825485      	85.05937       	97.10627       	80.52576       	85.30728       	92.46862       	84.11586       	81.27721       	98.21734       	90.4777        	83.293365      	90.04705       	89.85001       	90.87516       	85.16113       	90.75435       	89.98311       	85.19058       	84.17026       	91.6213        	91.732475      	84.214035      	80.31367       	98.49276       	89.85347       	78.47187       	90.72917       	90.27327       	92.10405       	93.06204       	83.44157       	81.98124       	88.17192       	92.524414      	84.84417       	83.500626      	
94.758316      	92.93974       	87.61807       	87.51678       	87.81853       	89.8844        	101.63758      	101.94146      	98.747765      	101.259636     	104.04883      	103.15886      	97.67089       	97.71858       	101.29532      	113.3361       	98.32307       	98.98382       	101.19926      	98.31034       	99.91792       	108.026115     	114.47266      	105.31832      	109.48685      	111.623566     	103.55461      	98.56761       	96.01989       	96.70322       	95.85497       	96.38016       	95.81893       	98.78026       	94.17391       	98.2196        	97.94542       	92.17643       	88.96408       	96.18844       	99.554146      	95.30452       	100.23597      	91.7052        	91.50664       	96.19096       	90.334015      	91.97444       	97.19969       	82.0435        	82.70659       	95.702194      	87.9853        	79.70262       	86.48387       	89.32875       	77.72364       	86.36695       	89.124756      	85.89548       	90.459145      	94.00394       	88.162636      	84.537384      	93.477936      	88.716965      	85.20818       	90.84774       	87.96586       	82.90365       	90.68686       	89.84917       	85.37841       	88.26313       	94.285484      	86.22423       	87.560356      	93.14764       	84.85251       	86.45412       	96.55079       	93.18401       	87.36475       	90.228325      	91.12772       	88.53083       	86.93586       	84.86784       	94.34881       	87.57043       	85.291664      	87.11998       	88.51311       	93.92882       	85.183304      	89.453         	87.66882       	86.190216      	94.10976       	82.32178       	
98.53641       	89.794815      	85.35707       	86.88607       	109.75479      	115.87732      	98.001205      	111.80427      	107.48616      	95.17306       	97.32219       	108.18902      	96.49307       	92.338104      	109.62491      	98.71664       	95.26266       	100.95212      	110.387054     	96.167145      	96.971436      	101.510574     	100.17256      	99.9541        	91.94975       	102.23186      	100.260666     	93.47055       	102.56754      	99.2858        	91.080605      	95.09916       	105.563675     	87.230804      	101.14372      	93.544815      	88.313034      	99.603874      	88.82612       	91.55294       	99.84533       	87.67178       	87.61909       	98.3859        	89.48892       	93.41021       	96.7771        	84.27668       	87.64503       	100.4412       	84.00655       	90.83285       	95.46429       	85.19659       	84.91594       	91.01846       	92.82145       	93.825195      	94.787674      	94.68156       	89.373726      	92.501945      	94.25113       	95.150406      	97.17398       	87.6248        	99.70424       	101.765175     	91.07303       	95.9901        	94.17859       	92.89153       	92.53323       	106.13962      	90.09776       	92.93379       	94.44868       	94.29967       	94.278275      	94.96425       	95.263275      	96.45859       	96.33635       	91.662476      	95.01769       	87.48021       	92.82491       	89.93641       	84.34773       	96.77681       	91.06307       	93.61096       	90.64632       	95.34741       	88.23754       	86.300575      	106.57157      	88.245316      	85.57752       	94.05861       	
94.83402       	91.464355      	91.44121       	95.199326      	102.92937      	106.13144      	116.26977      	115.399284     	108.76334      	95.61571       	96.9461        	98.23417       	97.11781       	101.457275     	103.58186      	91.24923       	100.6357       	104.66984      	90.34307       	97.43157       	100.36002      	89.43651       	94.41802       	101.12455      	94.729454      	90.468094      	95.88844       	94.46495       	89.49238       	95.748695      	89.34445       	89.04451       	98.34843       	93.79078       	88.71221       	91.56307       	87.84224       	99.10283       	89.96928       	91.608765      	90.96473       	88.050896      	91.060875      	90.11236       	94.42304       	93.816086      	90.95          	86.81407       	92.75607       	86.7889        	76.28703       	93.05739       	108.08095      	79.03435       	88.0579        	90.034065      	86.40687       	96.86382       	92.43592       	80.923676      	90.45443       	93.843254      	80.30037       	89.164764      	93.138565      	80.720215      	95.56181       	113.561775     	85.1654        	78.68581       	90.441414      	82.942024      	80.29069       	90.80789       	83.58427       	81.078285      	94.32129       	89.52166       	86.269485      	84.31169       	91.84101       	88.455734      	90.32134       	87.20885       	92.326004      	89.72701       	94.35153       	85.87174       	86.906906      	92.39291       	85.14442       	86.57742       	97.678696      	90.5413        	85.24227       	94.11397       	88.67596       	88.37968       	87.86842       	90.04308       	
88.64284       	92.17836       	94.78902       	91.73976       	93.38848       	106.56193      	103.7533       	94.98693       	97.012215      	100.21355      	94.13293       	95.99287       	98.75414       	92.8155        	96.399704      	100.72968      	94.97009       	96.59631       	88.02568       	100.80197      	102.45757      	90.86161       	98.51421       	100.671745     	92.87743       	96.30542       	90.47136       	87.87121       	95.6835        	103.221306     	84.13297       	94.19687       	88.910645      	82.67172       	100.460655     	88.69965       	86.383675      	95.452644      	90.23193       	90.845825      	96.63026       	88.37662       	86.67009       	99.567215      	84.27174       	88.30618       	92.53287       	91.356674      	95.14204       	94.78548       	86.67616       	90.72798       	96.175735      	86.155014      	87.357735      	94.5573        	88.74244       	94.25816       	84.748344      	86.93767       	95.66621       	94.69629       	88.230606      	92.18804       	91.750694      	83.57713       	83.14197       	91.235794      	94.061195      	96.74995       	95.48233       	87.12509       	96.32167       	88.4246        	82.36083       	96.545975      	91.00157       	79.643326      	88.93057       	93.74647       	80.898         	87.80818       	94.35362       	78.90911       	93.700966      	95.66933       	83.14417       	89.07525       	91.25041       	89.48467       	88.46159       	91.84964       	86.73443       	89.80272       	97.60652       	87.72595       	95.113495      	87.16304       	84.80897       	90.07784       	
81.27909       	96.62318       	98.76766       	95.35529       	83.30787       	90.60783       	110.84953      	98.32841       	90.996635      	98.24068       	102.56982      	94.39042       	97.31965       	102.59785      	85.27153       	97.75395       	103.75231      	92.34115       	95.01437       	100.59368      	93.17407       	94.903885      	97.59697       	90.44612       	93.139885      	98.50394       	95.11223       	91.73261       	93.783325      	94.00044       	89.70702       	95.483795      	89.180664      	87.96221       	97.82263       	96.53972       	92.56342       	92.341156      	91.031845      	91.46443       	87.21722       	90.32851       	87.05326       	89.472946      	89.5763        	93.25036       	90.04334       	83.145294      	94.57524       	92.88343       	86.60828       	91.461624      	90.062546      	87.661026      	92.80907       	95.245026      	87.264786      	94.10786       	94.9324        	87.76225       	91.00656       	101.67658      	87.10042       	91.79142       	98.62491       	79.65999       	68.94402       	87.22337       	97.83632       	74.26835       	76.37908       	80.302155      	89.47062       	77.322845      	85.78761       	86.04866       	83.10377       	80.65673       	92.31884       	88.11463       	79.603         	84.49027       	98.40316       	92.981514      	89.152435      	99.74493       	85.834175      	86.35352       	87.64479       	83.093185      	87.91271       	86.28281       	82.068184      	89.780594      	100.400955     	93.64856       	103.737434     	107.295006     	91.36279       	99.01026       	
93.36455       	86.86943       	91.284706      	111.89755      	125.43445      	104.00127      	101.856094     	115.569145     	101.39116      	101.211945     	109.951866     	93.95747       	93.71492       	102.11307      	96.907         	101.827705     	105.43815      	90.59315       	87.16847       	104.25585      	98.22657       	85.24521       	104.066864     	92.508064      	81.991646      	96.60827       	94.22009       	77.207016      	103.140656     	95.98621       	75.78111       	94.79579       	92.27416       	84.605194      	96.16409       	91.635254      	89.668495      	93.007904      	85.58173       	85.76466       	94.15492       	87.30196       	88.89639       	100.589096     	88.74169       	87.15964       	96.51897       	91.2851        	90.624435      	101.01282      	88.52762       	111.02013      	106.44493      	90.48931       	88.31836       	96.80335       	80.382866      	88.95341       	100.544586     	81.49029       	79.375046      	115.49955      	97.92114       	83.347466      	102.33882      	88.613396      	86.15247       	108.02508      	90.46591       	96.08796       	107.2336       	85.80192       	82.943695      	108.8864       	90.90291       	83.92773       	109.562096     	91.84481       	81.09405       	108.04853      	104.70162      	96.700836      	104.06734      	92.63399       	89.157425      	104.74089      	89.023994      	85.39861       	99.90039       	88.4161        	79.96497       	97.59687       	88.79198       	80.253136      	105.22746      	89.00252       	80.5562        	107.56589      	86.29433       	85.75555       	
101.87781      	88.85002       	88.995735      	90.90801       	94.03813       	105.45142      	98.32984       	94.2309        	106.69998      	102.735725     	95.697266      	105.54684      	98.93746       	92.44154       	102.86173      	94.4673        	93.06273       	106.9251       	87.86613       	88.41577       	106.05307      	89.4576        	85.565865      	102.330894     	91.324066      	87.49919       	95.47093       	83.85082       	89.8783        	103.82393      	80.11504       	85.92493       	101.39767      	83.23874       	89.05679       	100.32447      	89.88634       	92.86968       	96.05326       	88.10725       	87.255844      	96.12263       	90.109604      	91.47998       	93.53708       	89.09961       	89.25903       	92.84465       	88.292725      	80.07088       	91.51539       	97.24006       	90.40848       	85.10409       	82.55277       	92.03348       	87.91308       	85.98072       	96.46715       	95.523605      	88.86764       	100.757484     	95.00469       	86.53873       	101.11894      	94.59525       	87.376305      	100.66286      	93.49292       	90.99216       	103.431114     	88.52058       	88.363075      	101.04337      	87.39314       	84.84108       	99.55407       	88.57799       	84.15751       	100.22783      	82.44279       	80.721664      	103.50225      	90.38307       	81.562126      	94.87219       	90.556915      	88.54558       	96.35289       	85.02693       	86.3761        	100.5623       	88.66395       	92.024185      	95.312874      	83.73227       	92.89457       	95.95262       	84.30373       	95.89438       	
90.850105      	97.75635       	95.98653       	92.81763       	95.495895      	105.069695     	97.7356        	92.861336      	101.29662      	92.577515      	97.232124      	100.78679      	93.26907       	92.58578       	104.87798      	95.49789       	93.313934      	105.24222      	100.38538      	94.41885       	98.80973       	100.21336      	96.72995       	96.18363       	97.253944      	91.99015       	97.94089       	95.29639       	94.88675       	100.607285     	92.26058       	94.608574      	91.65967       	92.89133       	90.37397       	89.43502       	97.97283       	93.59328       	84.11555       	91.80451       	95.92091       	85.14082       	91.8957        	94.04452       	91.892975      	96.58207       	92.92504       	87.35857       	92.074554      	93.458305      	79.68129       	92.60499       	110.68983      	79.828285      	96.57568       	100.86466      	88.480064      	82.4028        	97.34779       	90.29914       	86.93791       	96.56471       	94.024506      	87.72143       	105.61803      	102.75251      	87.82728       	101.65611      	98.22409       	89.467636      	98.35375       	94.11271       	93.59417       	100.94154      	95.92476       	90.20081       	99.655205      	95.694305      	91.039505      	101.065445     	93.80559       	90.04662       	100.5453       	91.11446       	93.14881       	99.355095      	90.60173       	92.06225       	100.053955     	86.17118       	87.66638       	95.96589       	87.500885      	82.69906       	99.978714      	90.3433        	89.83973       	102.632675     	94.77216       	87.196396      	
90.72124       	89.81648       	99.773964      	109.40663      	107.4275       	94.8978        	103.60242      	103.04874      	94.43071       	106.294395     	98.6558        	87.65522       	98.448944      	101.07329      	93.39261       	96.06254       	89.50072       	93.867195      	95.496956      	92.18134       	94.58088       	90.18952       	91.70318       	100.182526     	89.97879       	85.7223        	95.38358       	94.046646      	85.73237       	90.80018       	90.692314      	99.41154       	94.63159       	84.78158       	89.20914       	92.210625      	87.50792       	93.928604      	90.664215      	83.51997       	93.00685       	95.30661       	90.250404      	92.15611       	94.85328       	93.47172       	97.88609       	90.95409       	85.07724       	93.83263       	96.99731       	89.834236      	100.42646      	91.82991       	87.230995      	95.47625       	92.30409       	86.62676       	88.53857       	92.5509        	92.858025      	99.33214       	93.25532       	86.00729       	103.56178      	96.05618       	81.07795       	100.67599      	89.971565      	87.04021       	98.16968       	92.78687       	80.20585       	98.717354      	92.83575       	83.465904      	97.81349       	89.32242       	87.81928       	99.35998       	97.023506      	81.60148       	98.79172       	93.0356        	83.71434       	98.23371       	90.85577       	81.627594      	98.39982       	91.94373       	82.51989       	97.10502       	98.70061       	85.53386       	85.777336      	59.380947      	51.806877      	45.991062      	30.706573      	33.3528        	
90.2089        	82.808075      	88.34102       	98.04049       	101.3669       	92.42354       	96.04707       	102.59908      	89.88732       	94.845566      	107.03494      	89.33823       	95.70173       	103.3802       	89.47274       	90.64544       	101.33663      	97.32072       	93.88565       	103.40727      	90.50488       	99.188835      	104.85219      	83.84354       	90.998         	104.95861      	88.89788       	85.372734      	101.244705     	87.896774      	95.16904       	97.42196       	93.367355      	84.6043        	95.47366       	89.52478       	87.36009       	95.13693       	79.6619        	90.88615       	107.19604      	82.4816        	84.65335       	103.05815      	85.06503       	90.0599        	102.67529      	85.78259       	86.862236      	99.94825       	91.20955       	85.289635      	97.11301       	86.97138       	90.78069       	96.992874      	81.061905      	83.438774      	97.92734       	79.16871       	87.600784      	102.53378      	86.806465      	90.5773        	100.18277      	88.88193       	90.45893       	96.80249       	88.74254       	90.296555      	99.48901       	82.960434      	92.73184       	102.705124     	87.98569       	90.36705       	101.99932      	87.71026       	84.53471       	98.144455      	86.62059       	89.690994      	95.40608       	80.20955       	85.901215      	104.131096     	85.66021       	90.80202       	105.762665     	84.85001       	75.10679       	68.83266       	37.067867      	23.198313      	38.93702       	29.89265       	22.390804      	31.02969       	22.39486       	23.608725      	
92.321365      	91.90768       	93.979195      	95.4371        	102.62899      	102.43358      	103.607834     	97.27715       	98.010185      	99.903885      	95.61987       	101.311646     	101.998116     	91.96381       	99.7216        	101.36259      	87.648895      	98.65766       	98.07272       	85.479416      	97.65447       	101.46162      	82.801895      	95.54787       	99.79142       	90.27754       	96.50487       	86.33929       	86.61516       	91.3471        	82.15787       	90.53458       	96.87352       	85.80022       	92.99679       	94.169685      	91.278305      	87.602646      	93.6867        	91.02217       	88.18725       	93.98113       	89.20177       	87.590805      	95.366196      	90.828156      	96.82443       	104.40039      	87.448044      	92.96601       	95.78061       	85.89623       	86.91195       	93.895195      	90.17147       	88.72651       	93.48348       	80.16021       	94.431816      	95.78676       	83.263466      	96.492584      	103.02182      	87.6653        	97.1628        	97.79878       	86.181816      	95.77497       	100.59577      	93.05659       	94.52323       	98.9866        	90.84468       	91.52352       	100.20146      	95.037964      	84.6953        	91.31381       	98.834076      	83.14947       	92.204544      	95.77991       	84.2312        	89.47909       	93.65255       	94.56215       	93.35283       	98.04632       	64.26591       	42.103394      	26.009502      	17.096462      	21.8253        	25.99338       	12.918348      	17.282015      	30.947218      	23.930277      	32.0993        	37.1566        	
88.97203       	92.15393       	97.57219       	101.23482      	100.667145     	102.197075     	108.328255     	108.84168      	101.101326     	100.51573      	101.54411      	99.73059       	103.76097      	98.060455      	98.1487        	105.057846     	97.97031       	98.35882       	102.4687       	95.146484      	97.8311        	103.9397       	97.92866       	90.007515      	105.537476     	98.990074      	88.885414      	101.8423       	96.20766       	89.9759        	103.537224     	95.7637        	82.19694       	101.74821      	104.446815     	84.426025      	101.96297      	101.29639      	86.642914      	100.93437      	98.84096       	87.2165        	98.43783       	99.66407       	84.47214       	98.26163       	90.78639       	86.91956       	100.705925     	95.21338       	86.88199       	97.43426       	95.91536       	93.96945       	98.288704      	90.33804       	95.73734       	105.476524     	88.640945      	90.03864       	93.0885        	91.333305      	98.28816       	99.092125      	93.02431       	102.08944      	93.6059        	89.45952       	100.13683      	95.56587       	90.486565      	104.58735      	94.55982       	86.293526      	100.8726       	97.558235      	84.752846      	92.378525      	100.43448      	87.17596       	92.82763       	91.985855      	85.02326       	94.92797       	87.2303        	91.25752       	100.53722      	57.5946        	27.492922      	9.262663       	7.5989523      	16.913063      	12.166929      	20.471724      	27.647327      	23.267578      	22.996107      	40.173378      	42.455574      	36.091038      	
95.64844       	92.877884      	94.169685      	93.39706       	92.8029        	93.76462       	101.14489      	98.12313       	96.97293       	87.10225       	96.954956      	104.75764      	99.63477       	95.41147       	98.75597       	97.34364       	86.19906       	93.33436       	97.52448       	92.34868       	91.907974      	96.84087       	95.78333       	92.16487       	105.0762       	102.966385     	94.39725       	101.61591      	87.24145       	96.371025      	111.015335     	88.97466       	88.79647       	107.473724     	99.24537       	83.06052       	101.53783      	92.86732       	83.830574      	101.59527      	93.04703       	85.41812       	100.49651      	93.375015      	89.81938       	104.23105      	83.04222       	86.60955       	104.57822      	86.28419       	89.1967        	102.067856     	89.09818       	92.97011       	98.491455      	83.462074      	93.71829       	107.450516     	91.49901       	89.23957       	93.50176       	97.87952       	99.60615       	97.85693       	95.839264      	94.00997       	97.7303        	96.9558        	94.23608       	93.30038       	96.070786      	93.15011       	94.70344       	91.57837       	94.1208        	103.640045     	93.797844      	95.11913       	98.50011       	93.53431       	93.99024       	96.85084       	91.9025        	95.068375      	91.8921        	88.66672       	83.153076      	40.697586      	20.199594      	20.121223      	10.329057      	10.2284355     	17.444101      	23.542522      	29.48389       	36.489536      	25.889492      	40.022457      	43.30288       	41.180458      	
85.208565      	87.35517       	92.414925      	102.83207      	100.08537      	92.35883       	100.62334      	96.12858       	92.21008       	98.04591       	90.36884       	89.36185       	104.12305      	91.919975      	88.73508       	105.80602      	95.16368       	84.6623        	102.00739      	94.35155       	83.9993        	101.52799      	95.73828       	92.75807       	102.45942      	90.44435       	85.571         	101.838455     	88.11732       	76.34604       	100.14699      	87.46794       	76.87047       	104.73341      	94.62248       	72.4098        	97.79306       	93.1108        	90.64711       	117.57116      	99.70141       	84.39693       	103.30899      	98.63476       	77.05166       	105.162994     	97.56999       	77.47597       	102.69429      	98.94364       	79.670586      	98.7323        	97.34664       	78.52787       	96.57089       	99.989426      	76.37837       	96.505684      	94.66745       	78.93746       	99.18572       	103.70025      	79.634285      	91.78112       	108.1044       	82.08379       	87.31356       	104.253624     	83.65576       	93.48592       	102.94516      	81.32797       	84.975464      	96.036934      	82.44335       	89.992676      	94.54623       	77.13738       	89.734184      	99.99953       	77.81233       	90.43086       	98.94723       	86.01368       	90.06224       	94.38          	64.290504      	45.90094       	43.296555      	5.9668045      	9.549353       	20.66084       	12.27102       	22.909498      	34.16189       	16.263111      	32.287674      	52.926598      	28.55439       	46.719563      	
105.08329      	92.086395      	87.11385       	96.437904      	112.352585     	107.922844     	99.60025       	90.81307       	103.955284     	103.64555      	95.537674      	102.56136      	95.77774       	93.59486       	101.882416     	92.43006       	87.450554      	99.83862       	86.96059       	86.7828        	101.8359       	93.4943        	77.37574       	96.97657       	97.88642       	86.76375       	98.13579       	94.2363        	83.974014      	96.96111       	92.06462       	79.629845      	100.88344      	94.79933       	82.805626      	100.124504     	93.77873       	77.83866       	94.973946      	107.9526       	84.95619       	93.03224       	94.996666      	88.8369        	95.69129       	90.822716      	89.21174       	98.378975      	90.92978       	84.522385      	97.37115       	93.53582       	90.82361       	98.927124      	93.31623       	84.651474      	95.85587       	95.4838        	83.86781       	92.50366       	91.232124      	84.56772       	93.425385      	95.74174       	85.45203       	88.49723       	98.04914       	87.734116      	87.81839       	97.07177       	85.03847       	89.12975       	96.99776       	81.972015      	90.22145       	95.43563       	85.34656       	91.1283        	93.96156       	87.398155      	88.351166      	94.49566       	91.38281       	86.98474       	100.16422      	92.47038       	81.47433       	51.96502       	30.073874      	26.113798      	23.038527      	12.933003      	18.378166      	32.149483      	26.929665      	28.033438      	41.278545      	28.061106      	36.409607      	61.78753       	
88.738396      	96.951935      	99.471054      	94.24136       	88.65443       	88.89399       	93.67508       	95.79328       	92.02979       	94.8686        	92.76973       	93.61756       	96.459915      	95.121475      	94.911934      	93.7107        	92.37439       	94.981         	98.92875       	89.550644      	96.511665      	98.13278       	94.04989       	94.56774       	90.20212       	95.54053       	92.56583       	89.12115       	88.67493       	90.627556      	86.77025       	87.89234       	91.8592        	88.91931       	88.44316       	99.39902       	93.84201       	94.03105       	101.924385     	90.52336       	95.05144       	100.86899      	91.32207       	92.289825      	85.32734       	100.73568      	91.69923       	92.08869       	94.2744        	91.802666      	92.935394      	96.73276       	94.54658       	94.814384      	96.07901       	89.36467       	92.02551       	92.94336       	85.67004       	83.98738       	90.85636       	92.70479       	94.040375      	95.8597        	96.92525       	97.87941       	95.6293        	94.12228       	92.75099       	94.00223       	88.29011       	90.7264        	92.56703       	89.6405        	90.2172        	92.8014        	94.2131        	86.7643        	89.98565       	97.2826        	89.6088        	85.79971       	97.30032       	94.2068        	88.32791       	97.74411       	81.996704      	47.47062       	44.562397      	24.888876      	14.176529      	18.498552      	16.60397       	27.818708      	32.819443      	28.24255       	45.750584      	36.82299       	35.916622      	51.471947      	
99.559784      	93.375946      	91.66969       	95.52868       	101.59807      	90.50239       	83.82677       	106.2283       	99.002304      	90.710785      	98.26076       	96.315956      	89.02449       	97.9163        	91.722694      	89.30303       	95.588486      	93.138626      	92.74992       	97.03622       	90.29032       	90.55665       	98.22348       	93.02007       	85.25261       	94.89828       	95.46874       	97.636246      	100.81011      	84.501625      	83.886406      	89.14071       	83.70646       	91.51588       	92.80927       	91.637695      	88.67278       	98.50786       	88.585175      	84.90712       	93.74602       	91.10629       	86.64588       	91.7579        	87.575935      	91.28011       	98.50146       	93.68465       	92.75215       	92.50184       	87.75724       	92.58792       	99.77621       	91.68852       	89.12454       	97.05596       	100.74035      	89.01578       	99.08903       	98.80896       	95.40759       	96.80092       	96.94323       	95.774506      	99.23982       	96.240875      	88.90321       	98.89316       	92.56401       	78.42618       	94.26547       	89.86336       	84.01108       	88.75365       	92.95936       	85.04664       	94.57222       	92.175186      	82.30392       	98.51351       	92.791         	84.128555      	95.65031       	89.537964      	93.205025      	98.8252        	87.502426      	63.40472       	43.18929       	27.528748      	14.645428      	15.657656      	13.613862      	19.536102      	41.075436      	31.690937      	25.873362      	51.766277      	41.204815      	40.43514       	
89.50367       	94.37084       	99.00571       	104.83594      	99.73787       	89.972916      	99.69412       	106.5643       	95.192535      	101.292725     	104.15833      	93.77107       	99.83654       	103.73372      	95.425224      	95.84748       	104.18509      	90.31851       	92.0985        	100.18886      	92.450455      	89.81698       	97.29831       	94.82516       	103.078094     	96.60518       	97.1984        	95.22846       	93.87427       	89.95691       	93.22181       	89.109344      	88.673256      	94.75092       	87.011566      	88.581         	98.340935      	91.37438       	86.42764       	100.33195      	91.048836      	92.300735      	101.1513       	93.366104      	87.01746       	99.75314       	102.48923      	85.29322       	95.35778       	96.36391       	81.09639       	91.426315      	100.671745     	93.11267       	84.09803       	95.26215       	91.17321       	80.17199       	67.11444       	43.75728       	38.170048      	53.54606       	65.4889        	91.215775      	122.00799      	112.45726      	131.2825       	116.33817      	96.48832       	100.546875     	106.14467      	91.88773       	101.85381      	102.080925     	96.72623       	102.97431      	101.004486     	92.63734       	96.45074       	98.42289       	86.120415      	96.5044        	102.94589      	90.15794       	99.44918       	103.8299       	92.365814      	87.91762       	55.607243      	29.487806      	22.13658       	21.243214      	11.900394      	18.611036      	37.780437      	31.332243      	32.70261       	41.30338       	40.64728       	38.762047      	
87.04442       	88.59345       	92.874306      	104.02807      	108.01718      	103.0263       	103.74086      	96.87977       	92.10716       	100.335785     	94.878784      	90.5028        	94.57834       	94.529335      	90.74791       	99.422165      	99.864365      	86.50305       	97.680046      	98.26614       	92.95625       	95.06878       	96.80008       	87.6378        	96.82777       	101.089424     	86.98869       	94.374214      	98.83365       	86.161674      	91.15772       	93.848015      	83.08777       	90.57959       	99.040215      	90.02391       	93.64371       	91.15903       	91.74495       	97.24333       	90.01076       	89.54231       	91.29794       	84.89244       	88.178665      	102.36897      	94.465164      	78.06833       	97.7661        	101.72411      	84.89938       	98.35445       	97.237236      	75.17785       	67.36418       	51.338947      	29.734528      	31.75414       	25.959831      	12.381761      	25.231062      	26.132816      	27.717457      	69.67916       	119.940956     	111.50729      	133.1324       	120.176704     	114.81023      	120.08088      	114.19164      	116.08989      	114.03056      	112.756744     	109.20552      	116.76615      	106.44482      	102.98073      	111.11328      	103.89072      	99.2601        	107.62658      	104.113235     	103.99357      	113.557915     	101.6292       	97.91898       	105.10194      	68.134186      	39.762966      	39.596836      	22.422014      	17.957644      	35.961376      	33.209126      	26.098116      	47.835896      	49.81667       	40.815914      	54.821568      	
98.36873       	97.44398       	97.44643       	101.46172      	99.350586      	98.14892       	98.703926      	85.456436      	91.73629       	102.03758      	93.18736       	99.46241       	101.10528      	93.97258       	101.65974      	104.89426      	94.16591       	98.91686       	96.079796      	88.74232       	99.025276      	98.69641       	85.44189       	90.18355       	101.70781      	83.881355      	95.72856       	100.42102      	86.58899       	92.32047       	99.79682       	84.471176      	91.75195       	95.48052       	86.26195       	93.84314       	103.049515     	87.25538       	89.54398       	101.87321      	101.81388      	97.151726      	106.85205      	106.107285     	85.96939       	98.2411        	95.89066       	89.24849       	96.66922       	90.53387       	58.345707      	44.345833      	35.327774      	22.072445      	26.610678      	20.569252      	13.840055      	27.893368      	27.535471      	18.130314      	29.598787      	40.048134      	52.54431       	78.81379       	118.88652      	128.4293       	137.16196      	127.74361      	125.97102      	123.50542      	120.79648      	119.19934      	122.21211      	116.70875      	114.81572      	114.41165      	113.07303      	116.04739      	106.317055     	109.30812      	111.20757      	107.98785      	109.270874     	106.41889      	110.13067      	108.80917      	109.533455     	105.10603      	77.30478       	50.36194       	25.045969      	31.234236      	28.473728      	24.340946      	34.170597      	36.701916      	36.537758      	48.76884       	46.930874      	42.35228       	
87.53232       	91.059235      	95.68583       	96.71355       	91.58944       	92.75528       	97.90632       	96.249275      	92.06356       	107.44344      	104.409775     	97.776985      	107.19786      	93.239456      	98.299576      	105.70048      	97.04211       	97.35678       	104.16218      	94.16702       	88.59293       	104.13478      	97.66657       	88.40601       	96.9056        	99.21608       	97.61945       	98.24399       	95.51606       	85.892136      	95.894196      	91.5603        	90.83703       	94.5463        	91.46615       	88.17805       	98.7463        	96.61992       	84.50351       	90.74792       	97.995895      	87.7434        	99.728775      	103.79125      	84.879         	78.47258       	60.159096      	27.810177      	36.554596      	37.413353      	11.268229      	29.488115      	36.14308       	13.612771      	29.869366      	43.446354      	27.441576      	30.09894       	49.629105      	37.47238       	36.524075      	48.835934      	57.196392      	81.18714       	126.010895     	147.2641       	150.12808      	141.62984      	135.12582      	130.15025      	137.48557      	134.36555      	120.794586     	128.07314      	128.47716      	119.292305     	121.45738      	117.6536       	116.45991      	112.14446      	112.54049      	120.29729      	117.64027      	113.36844      	119.66867      	119.632256     	119.34968      	111.2434       	86.66671       	57.295006      	38.466045      	28.86035       	27.934937      	31.857168      	41.461815      	43.131386      	40.42798       	41.538067      	43.42249       	51.95651       	
89.89998       	92.718315      	99.20147       	117.142746     	116.79799      	104.115616     	112.378265     	109.54672      	93.82592       	105.17917      	105.06349      	86.03763       	98.74293       	112.92758      	91.264534      	99.65303       	103.74095      	91.43889       	92.30672       	109.75736      	92.1519        	95.210205      	107.22533      	96.219154      	95.563736      	105.119514     	96.34395       	93.986984      	99.736855      	96.10904       	91.485176      	100.65495      	99.80315       	86.96859       	98.40304       	93.89913       	94.21573       	99.67278       	95.66048       	86.36309       	87.89029       	75.02117       	36.847794      	30.669334      	36.42578       	20.660484      	20.436615      	25.296305      	17.387516      	27.235924      	32.339634      	22.825344      	28.38072       	45.83751       	34.79858       	33.697536      	48.328484      	39.718697      	39.28563       	52.09327       	50.26362       	41.41343       	59.565376      	83.66129       	115.50894      	144.13365      	162.0462       	148.54095      	150.62148      	123.83827      	129.70636      	136.81123      	125.83808      	118.07622      	135.06236      	124.75316      	111.7126       	115.51523      	126.48801      	120.494965     	112.03816      	119.71729      	116.62927      	117.752556     	119.45057      	110.76439      	118.68433      	117.30677      	94.76716       	70.52497       	60.94363       	28.590994      	25.455647      	42.747177      	31.980864      	35.092266      	49.919167      	44.316402      	50.806484      	55.322166      	
99.36316       	95.77703       	96.5394        	107.24742      	127.09244      	119.50555      	104.49895      	107.22591      	108.79982      	100.57641      	98.943245      	98.1713        	96.138885      	98.1702        	99.23466       	97.34345       	101.02956      	99.56665       	93.31845       	98.625656      	99.35314       	92.17337       	104.60392      	103.03275      	91.159386      	95.20548       	103.544846     	89.892105      	95.11227       	96.550865      	85.17048       	92.32454       	105.19331      	91.19111       	98.20386       	103.68937      	67.41662       	53.308838      	49.25036       	30.408731      	28.709414      	30.703321      	18.04084       	29.864058      	32.81756       	24.792488      	33.955486      	45.311638      	38.793613      	43.820915      	52.61358       	42.3452        	50.948856      	59.027813      	47.092613      	57.138165      	62.331863      	54.908043      	47.287544      	62.23445       	66.4704        	48.108665      	66.5264        	83.01315       	107.18225      	153.37921      	172.26033      	150.4562       	151.12686      	152.02525      	133.48412      	143.11583      	139.98602      	126.61583      	131.75381      	137.02695      	125.45157      	125.064156     	122.538284     	122.51714      	119.79895      	119.75395      	116.794975     	119.39844      	117.55832      	115.349686     	117.72489      	114.23703      	109.24479      	82.42702       	60.816048      	39.35512       	28.423016      	39.163364      	37.374413      	38.762047      	51.637306      	47.907486      	48.471146      	59.447697      	
98.38858       	96.9252        	100.40876      	99.778305      	97.79989       	115.01095      	118.78471      	103.04222      	101.56273      	106.71764      	105.98161      	96.40803       	104.97571      	101.49074      	102.43354      	105.66835      	100.46784      	93.04399       	105.95607      	103.25793      	96.111946      	98.09004       	101.136314     	95.959114      	98.98607       	101.53687      	95.55457       	95.54691       	103.7913       	98.25618       	93.28723       	86.897415      	67.22674       	66.21677       	40.48664       	27.977755      	29.108177      	21.608074      	18.588556      	24.972298      	22.394665      	26.887918      	30.547392      	32.13769       	35.890903      	41.05483       	38.044067      	44.701042      	56.077866      	48.26934       	50.50432       	57.561222      	50.20227       	55.925682      	67.829475      	63.39156       	62.46877       	69.18482       	62.271503      	62.302048      	68.02852       	55.06641       	57.130005      	78.13533       	98.29262       	148.71767      	179.17822      	162.0632       	141.67984      	145.67287      	145.97461      	129.27893      	136.56566      	140.75833      	129.9097       	134.85776      	130.97824      	126.7267       	122.01168      	125.33821      	117.75249      	119.65734      	122.816055     	119.66641      	122.72885      	122.83986      	117.79648      	117.87614      	112.94693      	83.898544      	57.937996      	40.570778      	28.919735      	34.592678      	36.41193       	29.360119      	45.459476      	49.808537      	45.96514       	54.919296      	
100.30742      	98.30004       	101.79731      	103.275024     	105.97325      	103.69997      	105.522026     	103.23245      	104.866325     	106.90099      	104.77808      	100.57519      	103.25841      	95.47742       	105.54853      	105.63529      	94.67802       	98.82189       	102.18277      	92.08749       	95.72343       	100.582794     	93.02506       	91.551476      	96.84544       	96.95002       	92.46615       	97.80287       	90.36183       	72.601685      	49.181423      	25.230238      	27.27614       	34.04414       	18.192858      	22.527128      	33.940186      	27.748837      	22.551039      	42.788303      	37.262234      	31.122723      	45.066547      	39.951107      	49.04276       	59.033543      	48.81745       	47.99781       	62.780193      	63.61715       	54.999413      	68.07927       	69.283005      	52.458225      	66.917274      	72.64862       	61.94195       	60.57538       	72.321236      	63.811665      	67.98286       	75.81489       	69.05267       	80.53287       	110.733475     	146.36655      	183.21658      	167.77176      	160.83798      	157.7475       	150.99         	139.31459      	141.43457      	143.30374      	144.73257      	139.36615      	138.89134      	134.17015      	133.96735      	133.35773      	127.172966     	121.815315     	122.81722      	116.230095     	122.801605     	124.88234      	117.36652      	113.23723      	117.356895     	98.8807        	67.20858       	46.24145       	39.76105       	31.30709       	37.47808       	46.26754       	47.666374      	50.669163      	47.478237      	55.13304       	
105.220055     	109.81507      	112.80436      	109.83861      	100.782745     	102.99826      	109.9287       	102.53651      	101.467445     	110.11978      	100.71945      	106.09473      	112.3158       	102.22584      	108.84781      	104.95384      	92.64516       	100.64019      	112.52022      	92.662796      	100.91854      	107.95299      	89.765335      	96.98449       	106.333244     	92.34066       	101.615555     	100.80334      	42.338493      	17.511255      	25.224539      	11.563446      	15.582092      	30.245605      	21.842558      	21.219883      	41.04395       	33.757206      	32.827236      	43.831684      	45.927834      	41.164692      	51.0745        	52.784817      	47.56224       	57.964382      	58.959915      	56.302677      	59.50078       	66.17243       	62.476337      	67.91088       	69.01915       	62.09993       	72.70466       	83.42933       	66.543625      	72.44035       	85.39487       	69.48938       	68.54235       	74.94909       	69.93527       	73.98441       	98.84122       	133.30151      	158.83002      	177.30226      	160.06454      	154.64915      	160.32042      	140.7474       	142.81781      	141.92143      	132.98708      	137.86546      	140.53304      	130.69922      	129.99539      	130.51045      	122.33878      	127.07862      	127.96685      	122.48306      	125.38025      	117.14672      	118.57775      	122.759926     	121.46696      	100.41629      	73.07827       	58.35466       	39.67844       	32.19311       	40.024044      	41.754623      	41.807644      	52.107742      	56.875526      	52.551514      	
103.43172      	99.85973       	101.8508       	109.71168      	110.28613      	101.1235       	106.89547      	105.99122      	97.74051       	102.26607      	105.822945     	98.05807       	97.97885       	104.990616     	102.3134       	97.93258       	102.17477      	92.97798       	97.912605      	108.6111       	96.434135      	100.13506      	106.30245      	90.44926       	96.266396      	104.51932      	92.52901       	47.18566       	37.424328      	17.580397      	11.081651      	24.553345      	19.382975      	17.880688      	36.083744      	35.8209        	38.89549       	41.684074      	40.960308      	43.805683      	55.207638      	53.59467       	49.189846      	64.11761       	64.73366       	60.92247       	63.58856       	63.05642       	59.593834      	77.041855      	70.3186        	68.09874       	74.5797        	74.895645      	75.148834      	77.28434       	75.84838       	76.86795       	73.71721       	73.77698       	78.12906       	78.77227       	65.05926       	69.71406       	87.91345       	104.577255     	159.37086      	182.01904      	154.00807      	151.09871      	159.60182      	135.32347      	137.09804      	144.0121       	134.15782      	131.91138      	136.65077      	126.451004     	130.75345      	135.11752      	125.345146     	120.0501       	126.675224     	122.70979      	116.95379      	119.67679      	116.56421      	114.21159      	116.54542      	111.392815     	76.137665      	52.439304      	35.389534      	36.623077      	31.195427      	29.139688      	41.883297      	46.094116      	46.955814      	54.03975       	
106.369156     	104.01702      	104.66701      	110.5027       	109.419        	99.67362       	101.05126      	110.866425     	106.24425      	93.49234       	107.80305      	103.70393      	93.1595        	104.677734     	106.89734      	93.17809       	102.04976      	111.74724      	102.26237      	101.03862      	103.82093      	91.00258       	98.650345      	108.94512      	88.45737       	95.21179       	87.22367       	41.070442      	24.688356      	21.9456        	13.718816      	12.762783      	29.685892      	26.371727      	23.972044      	35.492756      	38.39658       	41.692543      	40.87764       	49.614914      	47.56469       	51.75963       	51.176003      	47.839363      	54.892128      	61.766396      	62.720108      	66.79668       	55.55979       	63.07808       	67.98101       	64.78027       	66.814575      	74.99598       	58.479057      	75.25121       	76.5928        	67.43595       	75.59585       	75.69853       	64.47669       	72.4804        	74.09117       	65.471146      	82.03061       	112.73043      	143.92291      	180.35739      	167.14401      	152.38048      	154.0578       	156.90082      	141.48056      	142.81548      	149.26558      	131.2401       	132.79309      	143.85754      	124.3332       	128.40056      	139.93636      	125.85918      	118.395645     	128.96498      	124.898346     	115.92711      	128.3787       	118.952484     	114.62764      	124.082245     	88.20696       	56.90734       	46.262905      	40.97746       	35.918518      	43.458576      	45.485126      	37.804104      	53.06071       	57.568596      	
104.65268      	104.696815     	107.38721      	104.752754     	104.84285      	111.0468       	104.78746      	110.425545     	116.017494     	108.17707      	98.47073       	101.07521      	111.552        	99.986725      	95.97558       	113.657845     	99.49088       	87.848724      	101.308464     	94.07845       	88.38787       	104.422134     	95.5105        	91.40121       	102.807365     	94.55425       	80.2498        	52.82396       	24.197996      	24.207935      	26.806303      	19.12068       	22.496447      	32.912266      	23.696486      	38.346         	42.504173      	36.266006      	35.464153      	45.225098      	43.31307       	42.415573      	55.79268       	55.638287      	47.75263       	66.17327       	65.28679       	63.97823       	70.42207       	76.14174       	68.066986      	68.05417       	74.33403       	62.997932      	73.21105       	79.27705       	67.47549       	67.62873       	74.612686      	80.59953       	73.62669       	71.59111       	77.91418       	69.135086      	76.524704      	95.061646      	133.49608      	184.6206       	166.65266      	163.23497      	155.75612      	151.75552      	145.2348       	148.38742      	141.79845      	137.41138      	137.61635      	130.31789      	130.301        	135.72493      	130.88692      	130.0204       	131.71861      	120.53627      	125.341385     	126.61354      	116.25202      	120.440025     	127.10469      	116.63913      	104.22453      	76.21243       	34.569466      	31.531645      	44.723076      	29.203825      	34.47856       	55.67472       	45.03383       	47.30597       	
108.77845      	104.67888      	103.17348      	100.876595     	104.34429      	107.99784      	99.43074       	98.75419       	106.6845       	98.00514       	94.96862       	107.87126      	100.95459      	95.965195      	100.23233      	101.13697      	102.93795      	101.39136      	97.94304       	103.112946     	109.00321      	101.37619      	109.80446      	109.39495      	102.432625     	110.23363      	88.47328       	52.185745      	40.363926      	23.005674      	14.382507      	25.905735      	26.342741      	23.66676       	31.633171      	43.55878       	35.053482      	43.063667      	48.46275       	41.182735      	55.831333      	56.790718      	50.366005      	64.40917       	55.511         	52.561768      	65.2882        	59.602375      	50.261703      	66.023964      	68.71928       	58.198166      	70.05269       	70.90687       	64.54086       	73.662575      	74.73732       	64.41875       	76.19827       	76.0907        	63.3964        	84.75402       	82.464966      	62.646847      	74.2934        	104.05702      	119.92163      	167.08731      	184.63405      	153.63588      	148.46031      	155.73135      	141.02621      	145.05728      	146.9711       	133.51498      	140.64607      	145.3758       	135.94307      	129.1644       	130.26053      	124.08941      	122.34009      	120.92318      	124.62048      	120.1679       	120.198494     	115.168526     	109.781624     	124.95883      	101.727905     	64.88824       	60.934143      	39.26235       	34.84075       	46.3525        	47.03623       	43.154743      	54.80495       	41.72247       	
106.94878      	105.30322      	103.64809      	102.79009      	101.331215     	110.482574     	108.40287      	114.30537      	104.85246      	102.617714     	107.04757      	105.49093      	92.87698       	101.25492      	105.35981      	94.49186       	95.49578       	96.66066       	90.11076       	93.737144      	93.03498       	97.18631       	98.8571        	97.33745       	95.73071       	99.625015      	98.181046      	57.78027       	36.9886        	33.00267       	19.305777      	17.119204      	33.630142      	30.007551      	24.462196      	36.630272      	43.18063       	30.953753      	43.694466      	54.711998      	44.42431       	51.205303      	58.215775      	53.90925       	56.52968       	60.637413      	59.91491       	65.02501       	68.48089       	63.760464      	64.789055      	72.383675      	71.13758       	67.91941       	70.50502       	70.27055       	73.74076       	71.90903       	73.48571       	76.02987       	70.89807       	84.03          	84.743004      	70.02418       	79.13822       	86.627556      	120.11933      	159.4951       	173.32895      	153.7158       	153.12312      	153.38087      	140.69696      	140.8596       	145.1584       	136.10089      	136.69336      	136.49733      	135.00272      	123.668465     	130.37029      	130.22214      	117.55843      	124.75911      	124.55578      	121.54649      	124.79198      	122.63594      	115.58449      	121.48108      	117.06142      	69.45419       	51.844746      	48.122044      	28.958143      	29.79813       	41.59422       	47.4796        	52.778587      	55.561703      	
107.152824     	107.26275      	111.42138      	110.170364     	107.85924      	105.423416     	99.85039       	103.92121      	98.91955       	96.73511       	108.45401      	105.79727      	96.75102       	106.67994      	101.52107      	91.748344      	100.133965     	105.688736     	91.144196      	93.915886      	107.17508      	109.27913      	107.824234     	116.744385     	95.44982       	100.82141      	104.75499      	67.4467        	43.950375      	34.551476      	18.18553       	21.685066      	36.049446      	31.881794      	26.206938      	38.23284       	39.849033      	32.314697      	48.269596      	47.905495      	45.287285      	62.665695      	66.48758       	53.631756      	56.70779       	67.947         	61.95554       	64.66627       	73.52673       	60.188297      	67.04188       	71.83428       	63.060173      	67.97322       	74.384834      	76.03132       	66.954765      	72.248886      	72.76396       	70.09781       	78.78996       	66.33219       	64.31074       	73.1776        	85.631         	96.58298       	112.12455      	148.39107      	169.35886      	161.08273      	154.96384      	148.3792       	141.92421      	146.12321      	141.05453      	132.0733       	139.109        	135.35019      	126.38443      	127.98856      	129.96123      	127.47586      	125.97022      	117.326385     	127.646225     	121.881355     	115.77405      	122.89711      	121.87821      	114.76518      	115.14127      	80.23432       	49.471966      	43.787388      	44.979256      	35.35754       	34.770073      	41.31543       	37.41787       	47.745003      	
47.28943       	49.219784      	64.18419       	93.649185      	137.04077      	139.34671      	134.76964      	122.47255      	120.36115      	123.945114     	120.127754     	110.497116     	116.93579      	113.79365      	111.97905      	111.0247       	106.06034      	115.540245     	115.84493      	107.29503      	112.57893      	110.44233      	100.66264      	111.63616      	108.08468      	101.114746     	115.00618      	93.7693        	44.039646      	43.026558      	25.312538      	17.876278      	34.06126       	31.2625        	23.004559      	40.781578      	53.732525      	40.68844       	56.73379       	54.19621       	44.551964      	66.822014      	86.60782       	58.765083      	68.42937       	65.65894       	55.79522       	70.062836      	68.61848       	55.50917       	65.52087       	72.27386       	64.41487       	66.10301       	72.311966      	66.541046      	72.774796      	70.700264      	65.646706      	66.1507        	71.68799       	55.184586      	66.21059       	81.07746       	66.50404       	92.709274      	115.67602      	142.02061      	166.83464      	165.41954      	156.47281      	156.23956      	154.54295      	140.28966      	148.34279      	146.55975      	129.61441      	139.66048      	136.60126      	118.10347      	130.20999      	133.35515      	115.79545      	120.87678      	129.56432      	114.631836     	113.83277      	128.36142      	112.52699      	118.07219      	126.762764     	85.96406       	59.18204       	51.74062       	48.45768       	32.044605      	47.989323      	44.82621       	39.08861       	51.27173       	
44.050014      	52.247623      	69.01581       	98.57708       	138.94437      	156.2089       	155.6548       	164.632        	148.69565      	143.39578      	142.3651       	127.67137      	131.74432      	134.52304      	122.29794      	123.46662      	123.67471      	122.272354     	122.655235     	115.12951      	113.15763      	115.03268      	108.68709      	112.610016     	111.58714      	109.22594      	114.13614      	108.87054      	73.72512       	52.25507       	39.977165      	26.084934      	32.72916       	38.05137       	35.10406       	44.27877       	43.79          	45.974525      	51.329266      	51.574642      	49.30133       	54.376465      	56.687336      	55.410484      	63.558067      	61.945305      	57.533203      	77.32548       	77.45528       	61.13505       	69.5404        	81.64831       	68.23135       	66.90819       	83.07298       	68.99439       	71.87929       	86.6648        	69.11604       	68.037766      	78.89259       	70.874725      	76.569695      	82.92484       	67.24611       	76.18324       	113.86141      	134.53403      	152.11545      	173.84569      	163.99203      	145.59328      	147.16725      	158.13037      	138.1751       	147.72215      	145.93674      	128.60587      	139.5917       	136.72784      	122.539185     	130.73541      	131.98305      	116.73829      	124.70215      	130.77988      	120.71251      	119.97164      	124.62907      	124.67935      	126.17181      	108.42555      	61.090324      	46.885796      	46.14964       	27.701069      	34.096962      	50.67425       	43.88924       	50.43376       	
56.380825      	64.77007       	67.29626       	80.476265      	136.19838      	174.09384      	157.20955      	152.11617      	167.94957      	156.0587       	136.63995      	141.30827      	140.71275      	123.85511      	132.60101      	138.20819      	127.64235      	137.14139      	126.28643      	121.02345      	129.26907      	126.84522      	119.85627      	123.66639      	123.79237      	117.080605     	123.420364     	125.27626      	77.1407        	62.188236      	52.68789       	31.319103      	43.17123       	47.413303      	31.680052      	45.12231       	56.625755      	44.60667       	56.701023      	54.671616      	55.45406       	62.732918      	63.25122       	59.69642       	61.793728      	65.03627       	67.5356        	63.65969       	68.90172       	68.983025      	67.047905      	73.632065      	72.662766      	61.263103      	73.7362        	77.17521       	61.551884      	73.751236      	81.0184        	69.67856       	75.10346       	76.39694       	62.244034      	69.7717        	79.66719       	65.68919       	80.9117        	118.68963      	155.15971      	168.32896      	165.28783      	153.47717      	139.22012      	154.49863      	143.04652      	128.97102      	144.3171       	136.8085       	126.22159      	134.61884      	127.94133      	114.88842      	127.06116      	128.87067      	110.94479      	123.52908      	118.39892      	115.575935     	124.44906      	114.25795      	115.94683      	110.7576       	63.2404        	48.74197       	44.620827      	34.205544      	35.656166      	46.840828      	43.261253      	42.69996       	
48.04112       	46.10909       	69.26048       	107.64473      	137.7831       	158.01122      	171.15042      	151.41371      	150.59898      	144.27888      	139.69214      	130.31613      	137.01816      	136.8985       	128.7151       	133.654        	127.03181      	116.2161       	133.65176      	128.77797      	111.02292      	123.413284     	128.63235      	110.311646     	128.62006      	114.98961      	107.82842      	125.140396     	108.99399      	57.61231       	51.429222      	42.431828      	22.854572      	37.638706      	35.75224       	27.145174      	48.472214      	52.615864      	52.224754      	56.878197      	49.952187      	62.99473       	62.280037      	54.02744       	61.748817      	65.69365       	64.07326       	69.768074      	70.79103       	65.05861       	64.74032       	72.449265      	74.84325       	74.49199       	70.88647       	72.09823       	77.4195        	77.98568       	69.36295       	74.02154       	82.047455      	72.16936       	71.79887       	78.36665       	63.452053      	72.478065      	83.75377       	101.13114      	152.20503      	176.90237      	162.93604      	151.56995      	154.7678       	151.61444      	137.02797      	150.17018      	146.80972      	131.26231      	134.87779      	142.93956      	130.53368      	134.01361      	134.5233       	125.09974      	129.24014      	133.12413      	120.64938      	123.80944      	128.54555      	120.34667      	122.96175      	124.3549       	84.56323       	54.701336      	48.0775        	35.59347       	36.07978       	37.307735      	45.50765       	51.950783      	
70.4228        	53.84947       	51.018265      	77.01596       	130.13083      	157.14503      	152.58084      	157.60143      	170.16495      	134.60739      	142.37778      	150.58081      	128.5731       	132.53221      	151.53049      	124.34797      	135.52301      	133.9952       	126.20609      	123.02524      	136.55133      	116.32199      	123.908806     	121.53435      	107.6289       	123.95782      	127.9054       	115.26599      	107.53793      	78.32084       	47.826904      	38.488857      	42.047134      	31.59964       	43.657402      	50.963913      	37.772655      	49.65694       	53.957657      	44.490273      	56.019474      	65.87737       	48.21752       	57.104477      	70.21541       	59.98259       	69.30384       	64.77923       	62.1543        	67.63079       	71.56981       	65.67788       	72.76098       	77.17791       	70.47472       	78.55542       	77.731964      	68.65834       	78.49944       	78.86048       	66.52013       	69.7193        	69.798904      	66.93765       	77.26112       	72.281715      	64.07962       	90.05598       	143.86156      	163.5778       	159.99577      	165.49562      	148.39395      	146.0263       	145.26105      	131.38661      	144.68773      	143.81812      	130.53204      	137.1238       	140.14806      	122.138596     	127.282684     	130.40439      	113.89762      	127.33906      	132.36761      	116.36967      	131.06738      	127.28863      	111.1411       	125.782974     	102.296684     	55.759605      	52.550755      	41.62394       	30.374748      	45.865536      	48.838238      	36.274166      	
57.834053      	61.97198       	69.29451       	87.17151       	122.792656     	159.64014      	167.3005       	158.68243      	149.18086      	146.09076      	153.6265       	143.01363      	140.70593      	136.05289      	134.94072      	131.69572      	130.72215      	130.55563      	120.77046      	131.34935      	130.94171      	117.620255     	128.4851       	119.293816     	114.83946      	128.99078      	118.964584     	113.770905     	120.62279      	93.206215      	60.53039       	49.82759       	37.850025      	28.715685      	44.355797      	40.98675       	40.007675      	60.315693      	50.924522      	44.225883      	60.645126      	61.052513      	48.129658      	65.46329       	66.96178       	56.23904       	72.290276      	67.992744      	57.27317       	74.51387       	77.75082       	61.295353      	72.79038       	76.116264      	67.51156       	77.54802       	84.25216       	65.12586       	80.3987        	86.17961       	66.28697       	75.7778        	81.14072       	61.503647      	77.572655      	80.18985       	64.33914       	82.73808       	151.9586       	156.77954      	165.01936      	170.08144      	145.56187      	145.12865      	159.9789       	139.4553       	141.21976      	147.37132      	130.78401      	129.00739      	140.13576      	122.23319      	119.058556     	132.4072       	121.530426     	114.85411      	129.83171      	120.55863      	120.40825      	125.53915      	118.42041      	126.18117      	109.7382       	71.01671       	55.165813      	48.794327      	34.728855      	44.569942      	52.075615      	40.047585      	
51.020725      	56.05748       	61.315536      	73.64759       	95.1774        	146.38597      	175.05081      	153.36838      	141.40869      	148.5303       	139.0807       	141.57527      	146.8489       	139.30307      	129.49084      	142.02489      	140.04456      	127.61694      	126.49169      	129.0735       	118.93968      	132.23543      	130.43246      	119.63365      	122.91483      	122.66572      	118.74574      	121.83245      	124.70898      	96.95108       	63.43804       	50.341927      	34.6476        	32.832256      	41.306293      	43.509605      	38.342796      	49.902443      	49.738712      	48.866104      	61.383602      	73.53112       	63.998955      	51.77488       	65.50887       	73.42128       	53.71767       	62.04818       	67.27672       	63.174088      	67.47519       	68.66037       	69.585526      	67.5465        	71.74364       	78.57733       	76.795456      	70.49889       	74.93901       	78.19343       	74.85035       	74.00902       	72.008804      	73.61564       	71.51923       	71.19925       	72.03651       	84.25793       	121.58221      	159.65749      	178.74538      	161.0526       	152.07272      	150.32368      	146.07591      	141.72263      	139.69925      	139.16563      	139.5364       	128.52066      	135.88791      	131.45029      	125.4249       	131.4589       	129.46051      	123.15909      	130.49187      	124.71335      	117.81833      	125.91307      	126.568565     	118.13972      	112.612434     	76.19255       	45.1617        	39.32354       	39.288555      	31.819641      	29.854948      	44.940273      	
57.008297      	55.656902      	61.79901       	72.17193       	94.46664       	135.8044       	173.69753      	154.60832      	144.3083       	145.32454      	142.3112       	143.98805      	147.18263      	139.82565      	131.76108      	134.77325      	129.70331      	121.38382      	123.2777       	132.4856       	138.05093      	133.63353      	127.848404     	118.83654      	116.40344      	126.805664     	120.55214      	116.94661      	124.171234     	95.53304       	65.52747       	53.70726       	36.301876      	29.599352      	38.538033      	43.98184       	41.842003      	44.610943      	53.22854       	43.10103       	60.96011       	63.22943       	53.71291       	60.647793      	64.28986       	69.12946       	68.883545      	56.869358      	69.46074       	61.53445       	64.96184       	65.5164        	58.50157       	66.4724        	73.06128       	67.16651       	72.696495      	79.95794       	69.99145       	70.61363       	83.53861       	71.50677       	71.23497       	76.46431       	74.83652       	71.23475       	74.49749       	83.987465      	105.57108      	160.65457      	184.36697      	160.14957      	153.49767      	149.77435      	145.03912      	150.52977      	146.02696      	139.38403      	133.69272      	137.89287      	132.08136      	127.31308      	136.49232      	122.57194      	119.59246      	127.237076     	121.55073      	117.58031      	124.968155     	120.1941       	117.934685     	122.9305       	117.258224     	78.23785       	52.237064      	37.01759       	33.265297      	33.99735       	27.512089      	30.570713      	
65.97635       	64.22547       	56.900032      	60.52746       	89.62582       	138.72534      	161.52948      	161.14499      	161.65314      	145.44888      	136.09756      	146.48453      	138.05005      	131.2325       	140.38994      	131.74844      	129.03914      	136.87538      	139.30424      	131.37952      	122.54839      	115.43324      	116.68331      	125.69414      	115.424576     	116.89894      	124.17562      	122.92882      	119.98648      	95.73552       	59.34102       	48.532394      	35.13582       	33.80827       	35.22835       	32.909386      	36.564075      	53.830593      	58.031742      	49.036674      	50.85195       	52.753304      	63.349625      	58.935078      	77.00987       	64.87977       	59.718285      	68.68861       	52.59347       	36.680927      	46.544502      	53.64117       	69.0113        	90.29056       	74.31237       	67.61361       	77.44765       	77.13945       	66.573456      	79.54029       	71.41613       	69.970055      	77.682755      	72.4866        	62.881443      	75.87183       	77.80927       	61.560947      	104.03125      	147.80617      	165.16983      	160.9339       	163.38889      	144.35619      	143.70341      	153.55083      	135.51385      	131.70844      	139.84262      	129.48654      	129.8374       	138.41162      	125.942986     	127.63838      	128.70317      	125.641655     	122.89387      	124.08859      	122.268845     	116.7406       	125.87697      	121.7542       	114.6424       	97.921234      	57.10866       	55.57287       	62.927265      	42.354958      	39.321323      	45.0469        	
64.97967       	53.751846      	55.996304      	75.089134      	103.19737      	125.5144       	157.15326      	176.02663      	156.63837      	143.73969      	148.80577      	147.48518      	138.60194      	136.45079      	130.63516      	125.02494      	128.18129      	129.15053      	131.41714      	126.12955      	123.71529      	121.10741      	124.15494      	128.62823      	130.13307      	121.415985     	111.16795      	113.748604     	128.65047      	114.17399      	68.528275      	53.715878      	48.239433      	30.229755      	37.896843      	41.120728      	45.18165       	45.193546      	59.637207      	50.047554      	57.024055      	57.856697      	51.33748       	63.046566      	66.20384       	56.049866      	61.50152       	63.12317       	56.861366      	53.557304      	49.102676      	46.971928      	60.354527      	89.737785      	88.39003       	69.26128       	73.22398       	78.7695        	72.20122       	74.27882       	79.734375      	74.01967       	76.76724       	73.09517       	66.41726       	66.594734      	68.444046      	71.56402       	78.776505      	135.7172       	168.75461      	167.58067      	160.68703      	153.5468       	151.21393      	140.70862      	152.5258       	141.5055       	131.21419      	135.83473      	132.68044      	124.85364      	129.09335      	124.03459      	118.73824      	123.00489      	122.34375      	122.364136     	124.520195     	120.303024     	120.6638       	111.88813      	123.29468      	107.11613      	86.89112       	95.21589       	66.12147       	60.483456      	54.529484      	52.5286        	
60.11991       	68.77585       	70.764084      	72.49099       	87.69675       	122.4452       	161.455        	161.89664      	162.83315      	158.73608      	137.64653      	152.54665      	148.89877      	132.35663      	142.83205      	144.40895      	122.527756     	135.23143      	135.72743      	125.43612      	125.36943      	140.22218      	125.833046     	128.32095      	118.13622      	106.45877      	121.984665     	122.60524      	109.94343      	125.19588      	90.20977       	42.59731       	38.083443      	49.84234       	26.199146      	33.3861        	52.29071       	37.477592      	49.92551       	76.81728       	58.657246      	65.166435      	75.35933       	59.101177      	66.71852       	74.39613       	53.466         	64.619514      	76.57209       	58.26477       	56.988834      	57.21182       	51.147278      	76.517         	82.03403       	62.577007      	78.78252       	81.652985      	73.12905       	85.121254      	77.26561       	68.58941       	83.06137       	86.41618       	69.76098       	79.55962       	76.07938       	71.452225      	89.76922       	118.47213      	157.84898      	183.74258      	161.44022      	145.31216      	160.1875       	148.12686      	138.34758      	156.57126      	145.00858      	123.306816     	133.09813      	139.85574      	122.78873      	128.22618      	133.87033      	120.49431      	133.61116      	129.30267      	122.2461       	134.70247      	122.85418      	112.860916     	125.7159       	124.797035     	113.25156      	112.67427      	99.03033       	78.43144       	84.72942       	79.81617       	
59.793736      	54.943466      	59.16288       	73.18694       	92.17841       	101.33138      	136.94736      	178.74838      	157.5091       	145.07944      	145.98566      	138.99644      	141.79913      	148.20946      	135.13197      	134.12149      	144.56569      	134.10316      	125.98481      	132.15297      	133.05724      	115.15518      	127.49791      	123.63135      	115.65768      	112.43937      	121.55451      	116.837326     	115.12708      	120.606445     	99.37802       	62.8644        	48.874435      	39.574455      	32.878685      	36.646458      	38.17031       	47.23989       	47.896057      	43.456562      	51.77816       	63.51926       	63.147648      	61.773552      	67.615166      	64.023254      	61.67795       	63.750713      	60.63116       	59.144672      	71.01876       	70.94988       	62.77252       	72.39308       	74.54681       	69.29322       	79.35963       	75.94971       	71.03145       	77.985954      	75.74267       	72.37818       	74.55885       	71.95704       	74.82486       	80.25789       	70.71521       	68.19695       	93.58375       	106.44836      	136.76105      	183.98305      	168.19508      	144.19089      	153.5595       	151.32533      	133.13002      	138.10675      	145.17044      	140.12494      	133.51004      	138.26472      	130.2291       	123.61347      	126.62321      	116.60217      	121.613815     	125.95598      	121.13864      	123.18209      	128.282        	128.51138      	123.49195      	128.78209      	116.01755      	120.47267      	120.31605      	105.45764      	100.74183      	111.986176     	
56.239277      	68.1503        	69.334854      	59.467197      	57.460026      	88.40857       	136.18088      	146.28787      	164.35497      	152.49916      	140.95723      	153.23996      	147.10408      	128.6029       	132.46126      	143.76425      	127.26214      	130.56883      	133.35675      	115.94572      	130.25565      	131.21419      	115.182        	122.82185      	119.93919      	105.804245     	121.10243      	117.634315     	106.08199      	121.49877      	120.38832      	65.92815       	53.993015      	45.877934      	25.870396      	43.39517       	45.12168       	27.886044      	43.897896      	59.57993       	37.357998      	44.34896       	65.96105       	43.187077      	53.551193      	68.44676       	49.807884      	64.25049       	73.90732       	59.52505       	68.57409       	76.320244      	66.239716      	65.43588       	75.01357       	69.32217       	69.65079       	77.39502       	66.784584      	70.54508       	78.25206       	76.08583       	68.50659       	73.86197       	82.4585        	73.297516      	68.39668       	78.52296       	69.469284      	98.971634      	131.71906      	160.85408      	168.90277      	161.54321      	142.54918      	140.04984      	143.24725      	134.48967      	139.16795      	137.61786      	130.01677      	126.88868      	128.06094      	123.749756     	131.4304       	131.39087      	117.09781      	117.63764      	131.3725       	117.015144     	120.15702      	127.220345     	112.692474     	114.76592      	125.06941      	112.56575      	111.724815     	120.399994     	109.612274     	110.850334     	
71.0581        	69.75237       	64.33561       	53.73135       	59.387207      	92.37313       	112.96651      	151.04576      	183.6643       	159.34933      	136.30685      	153.65575      	147.1312       	131.51198      	134.82149      	135.75887      	124.69596      	131.01692      	130.77513      	120.93926      	138.87445      	132.98941      	111.307526     	126.808464     	123.43922      	103.03577      	122.80013      	123.04002      	105.89856      	125.797035     	120.93564      	79.934074      	63.44586       	47.92253       	23.266438      	41.750282      	45.237915      	29.62553       	45.709232      	51.161762      	44.11066       	51.241234      	57.87526       	48.80029       	55.264755      	57.09426       	52.745995      	68.34063       	71.83747       	64.99065       	73.887505      	69.87946       	56.98273       	75.54332       	73.10811       	62.79738       	79.23307       	82.353134      	66.394005      	75.65533       	87.95775       	61.60201       	79.84615       	83.74045       	61.483566      	78.89301       	81.72746       	70.00557       	73.65643       	91.46192       	117.013275     	157.62689      	180.85777      	149.67937      	150.96889      	156.44226      	135.26462      	139.18385      	152.2447       	131.4186       	131.62115      	146.37047      	127.46498      	120.856445     	135.8015       	124.44321      	116.63203      	129.8202       	118.88063      	118.52084      	128.8229       	118.5659       	114.20149      	130.87045      	117.77742      	105.11096      	123.65001      	111.147446     	101.96736      	118.380646     	
70.56977       	69.59136       	61.715515      	60.21024       	69.7238        	90.38883       	105.72139      	141.12227      	176.56581      	160.29721      	152.60585      	150.88481      	143.73697      	144.77672      	146.85313      	132.18759      	128.1149       	132.29172      	126.68124      	123.38961      	124.39383      	127.66077      	123.58348      	113.89689      	117.471115     	121.893196     	118.36131      	114.62575      	118.873215     	116.18181      	119.7207       	91.66884       	52.659664      	43.68096       	29.91087       	31.21947       	38.64898       	40.862263      	39.92169       	47.011738      	58.22768       	47.741043      	50.77736       	64.533745      	52.221848      	59.56954       	67.10096       	57.060097      	59.713615      	71.57703       	62.809814      	65.96264       	75.34549       	66.621735      	69.43553       	79.192635      	60.721523      	72.618004      	80.97594       	63.34533       	76.466965      	79.813965      	67.69653       	75.134636      	74.65639       	62.292847      	54.21297       	76.623955      	66.87713       	72.590164      	115.829605     	148.55759      	172.42725      	160.66074      	149.62794      	148.17978      	158.457        	135.21658      	140.70801      	152.08871      	124.84593      	132.06758      	141.48772      	123.23514      	127.27428      	132.3259       	123.286606     	122.4451       	123.39668      	107.46216      	124.64771      	128.11053      	110.27475      	119.18981      	128.89064      	109.47358      	119.38323      	127.106316     	108.19728      	111.03437      	
65.155594      	53.468853      	54.849186      	68.05505       	79.68855       	83.13095       	100.65721      	145.74522      	165.96605      	160.06021      	162.57791      	149.15971      	144.84874      	156.59233      	142.83205      	137.65256      	149.46152      	132.39478      	126.132        	145.54117      	129.31459      	128.63087      	136.92082      	121.53692      	117.57388      	132.36835      	123.654945     	115.128006     	129.46173      	123.91536      	114.97551      	106.5942       	55.288486      	36.789337      	52.63439       	35.337437      	28.236887      	47.125454      	43.46832       	42.225826      	62.493816      	52.408848      	45.316807      	67.297676      	60.29017       	50.569065      	79.8451        	65.66084       	58.41329       	81.238846      	68.362175      	58.12885       	83.71042       	73.448875      	65.22293       	80.7812        	72.68987       	65.353294      	88.898964      	75.576546      	67.64151       	84.9782        	72.2577        	67.382996      	81.29598       	67.98577       	70.233894      	89.82441       	77.353134      	84.96109       	114.29455      	142.97362      	171.42564      	178.2556       	160.94545      	157.18362      	155.43567      	138.91306      	148.41475      	156.21475      	133.13153      	133.41393      	145.49794      	126.0135       	126.064926     	141.60114      	123.80163      	125.097664     	127.22155      	121.18983      	123.97319      	119.660934     	113.36476      	114.94963      	123.09811      	128.50339      	135.51204      	119.57401      	107.71807      	112.72802      	
61.16196       	73.0699        	78.05391       	73.62353       	64.19792       	73.75219       	100.2403       	135.54732      	153.19803      	173.63849      	162.94363      	145.37894      	145.56557      	144.34412      	134.04738      	136.09435      	134.92918      	126.73833      	129.83804      	136.23517      	118.84268      	125.04452      	134.50587      	119.06352      	118.19592      	125.18259      	119.20491      	117.484        	123.92989      	114.94702      	113.282135     	107.81173      	64.42734       	45.76899       	43.205917      	31.84511       	30.119864      	47.800003      	44.764336      	36.012962      	54.227596      	56.828915      	49.437477      	63.3939        	57.650303      	55.352104      	65.62928       	65.28354       	62.83277       	68.44616       	62.42299       	65.25569       	70.1176        	65.12181       	62.76703       	72.72517       	75.15687       	68.70234       	72.107285      	71.848724      	71.7688        	78.18988       	80.43694       	72.3209        	77.50552       	84.788         	76.476654      	85.60621       	100.45589      	100.13309      	107.76652      	94.22614       	151.14514      	184.96794      	169.34198      	158.70401      	159.25893      	150.06898      	140.1465       	137.52403      	143.9223       	131.51515      	127.43884      	131.42879      	124.02597      	123.11722      	128.61827      	119.72511      	122.95248      	112.45179      	121.08065      	124.398476     	114.45722      	103.70067      	116.18795      	126.84309      	135.8886       	117.64596      	115.98697      	111.36962      	
70.25678       	61.89042       	61.65994       	67.3716        	72.62691       	69.94051       	72.41515       	119.78696      	152.94078      	165.46167      	159.38588      	148.28438      	144.80887      	150.27548      	142.10384      	135.41698      	140.41783      	136.15489      	123.90772      	127.52051      	124.72475      	128.47516      	128.43622      	123.85759      	116.90523      	121.17614      	120.00809      	119.584915     	121.12432      	117.32677      	111.13135      	119.46611      	80.56627       	54.74412       	48.043545      	33.05561       	31.035313      	44.728024      	49.582565      	35.56624       	49.861713      	55.652065      	44.41305       	58.546143      	61.12523       	52.93365       	57.72729       	73.14856       	58.399883      	66.99974       	67.325516      	63.049465      	67.59443       	68.360565      	68.86005       	69.164696      	72.75958       	76.277214      	73.89786       	82.64066       	79.86398       	81.75811       	98.74215       	96.299446      	96.486176      	105.35137      	90.743164      	106.59225      	112.68501      	108.1454       	108.49879      	130.45828      	159.47867      	157.55533      	147.40138      	151.69638      	142.87709      	136.6755       	139.60454      	135.65533      	128.87889      	128.54959      	122.68624      	122.97651      	123.49158      	121.111206     	124.19544      	127.63006      	113.88974      	114.51842      	121.90869      	115.622955     	110.73006      	113.34627      	108.7636       	107.64778      	110.05775      	102.54497      	100.05521      	106.88508      	
64.11785       	66.54375       	63.78534       	58.74229       	58.67521       	77.44719       	94.24892       	106.40053      	148.59862      	178.04251      	156.57304      	150.18158      	149.36798      	145.9153       	137.06253      	144.30849      	139.6991       	137.60931      	138.13185      	135.8005       	132.55222      	127.8686       	131.65465      	127.0321       	116.25143      	132.36171      	118.306305     	115.81165      	126.47218      	121.83565      	112.23964      	123.1936       	82.47248       	50.913864      	48.58394       	37.72453       	27.500149      	40.082405      	41.767227      	35.56422       	36.746056      	56.86807       	56.968224      	54.56417       	60.687508      	56.145943      	53.461624      	61.977493      	61.439907      	55.881546      	67.05053       	65.93287       	61.14066       	74.530464      	72.584015      	72.56003       	81.9242        	88.89369       	84.91413       	90.3356        	85.83979       	85.42045       	102.63493      	111.27807      	118.01982      	122.213715     	120.60179      	118.10042      	125.026535     	123.73115      	124.10556      	144.62613      	170.47673      	149.96701      	146.44656      	139.08469      	135.52005      	139.85654      	133.13715      	120.44483      	122.67317      	126.50096      	116.75533      	120.01343      	117.5758       	110.79622      	115.66822      	117.214516     	112.80863      	109.10477      	117.549385     	117.61731      	109.227135     	116.12321      	103.39725      	107.48399      	115.69244      	111.296394     	110.22907      	106.30435      	
66.90381       	65.004814      	66.04883       	72.68418       	67.65441       	67.16223       	80.024345      	102.11744      	136.244        	171.73836      	159.3793       	147.1105       	149.76772      	154.29831      	144.83371      	137.80309      	133.46463      	140.00279      	137.14984      	127.97309      	128.4795       	130.4218       	126.13288      	122.66732      	124.40995      	120.478        	118.25113      	120.21045      	119.2043       	114.83428      	114.07085      	121.458855     	94.2011        	61.749275      	54.288857      	35.86253       	37.092808      	42.877354      	36.668667      	39.307983      	48.152798      	46.464153      	49.873184      	60.439655      	57.131557      	54.04501       	67.361244      	54.639587      	56.480965      	74.566895      	62.81157       	70.407364      	86.08178       	78.01087       	76.509026      	94.60462       	84.84957       	87.035446      	101.81192      	95.06749       	93.333664      	103.11987      	104.88567      	104.40388      	137.77159      	131.54991      	131.86586      	145.05817      	145.44182      	146.08438      	168.48514      	145.70348      	131.22044      	137.22984      	127.389595     	123.18525      	135.05957      	122.10719      	114.43921      	123.523384     	121.506645     	112.67912      	118.689        	121.852135     	109.01269      	114.484856     	118.17011      	110.81926      	105.58447      	107.85571      	110.30566      	105.00678      	110.04386      	107.333725     	104.22466      	104.582726     	100.54731      	98.398926      	100.19507      	103.128525     	
68.006325      	59.0732        	55.92244       	60.795547      	73.28278       	70.24203       	68.55211       	93.46777       	126.629105     	144.55615      	172.15192      	160.0517       	145.864        	159.2379       	148.58876      	136.56187      	148.44925      	148.8667       	129.37416      	137.1836       	142.84236      	122.62215      	128.97728      	134.44356      	121.61585      	127.07929      	133.05136      	116.77519      	121.15548      	126.38351      	117.281334     	120.31636      	111.875534     	62.84208       	45.112217      	48.340515      	32.699715      	30.25983       	40.842632      	47.192802      	39.31262       	47.18956       	51.738216      	48.877766      	52.137512      	58.90841       	61.235275      	63.991787      	78.87633       	61.437622      	82.62609       	97.92452       	86.80726       	92.7986        	109.28578      	85.60855       	101.911224     	116.22822      	109.63919      	120.45555      	131.93828      	115.56282      	128.22533      	135.56886      	147.98291      	151.60994      	140.11057      	120.662895     	126.91093      	133.28033      	117.35941      	123.88748      	128.15048      	113.802925     	117.190025     	123.18202      	115.03615      	116.47021      	113.30298      	108.68827      	106.316284     	114.065506     	102.29532      	104.18393      	114.21582      	102.03662      	98.501595      	102.211426     	104.02466      	100.2673       	100.6903       	101.883316     	96.33876       	97.98567       	101.55945      	95.41427       	95.082596      	97.59151       	98.89327       	97.80903       	
70.372795      	67.03643       	64.752914      	65.810356      	68.82753       	67.699844      	72.56886       	93.36987       	133.92824      	152.01039      	173.25331      	162.29231      	150.24202      	146.45985      	153.31432      	139.38243      	138.83861      	138.92068      	128.94814      	136.7167       	138.93164      	124.52251      	124.51848      	129.00981      	127.23288      	117.86806      	126.38014      	120.10168      	119.90742      	124.06288      	120.50106      	115.844154     	111.10216      	76.8908        	57.232277      	45.23603       	34.622627      	32.32434       	41.313023      	41.391514      	40.381954      	47.664772      	51.109257      	58.038654      	70.50882       	60.890408      	70.15962       	84.30634       	96.562485      	100.548164     	98.989296      	95.81955       	106.46359      	101.85999      	111.48349      	117.90409      	110.63714      	118.40935      	136.79868      	132.63336      	138.14919      	152.80411      	135.0349       	124.71467      	127.00229      	118.19925      	113.75708      	117.13791      	113.89074      	103.24252      	115.84604      	113.07665      	106.045815     	115.758        	113.38574      	101.54366      	106.29994      	112.401665     	103.087395     	105.89955      	109.68689      	97.51887       	109.403595     	104.11788      	91.50877       	105.25906      	100.14588      	91.557755      	105.01431      	104.197716     	95.04772       	93.60474       	102.143974     	101.099        	97.60493       	103.09115      	95.35392       	97.897545      	98.69979       	94.75871       	
52.752316      	61.503532      	71.70781       	72.932014      	59.66664       	56.081455      	74.820045      	81.85033       	115.04924      	157.99788      	170.91916      	152.38779      	158.23509      	144.43254      	129.45802      	151.28746      	142.34662      	123.112724     	138.49883      	128.70718      	114.62348      	131.3724       	126.68106      	115.73371      	127.64754      	120.684074     	111.93607      	129.17015      	123.93391      	109.80148      	127.259315     	124.40777      	103.95916      	95.03954       	71.1278        	41.143562      	44.22258       	44.68607       	28.256056      	43.441673      	56.164124      	44.632362      	61.241177      	65.238594      	72.04725       	71.90971       	89.44759       	82.09096       	97.20677       	107.85399      	103.236336     	109.02872      	123.84276      	117.515366     	129.43024      	134.77663      	128.62639      	144.1749       	144.33206      	129.92984      	121.70405      	120.72457      	110.94355      	109.499626     	120.987625     	106.634026     	109.25278      	115.40629      	103.23812      	102.06851      	109.98881      	102.923904     	102.125694     	103.74303      	100.053055     	102.99121      	108.84874      	93.30474       	99.429535      	101.98368      	92.96782       	98.49953       	104.0326       	93.15069       	100.82238      	103.264084     	92.9662        	92.8824        	101.82645      	99.13368       	101.91302      	97.28604       	97.52403       	98.42134       	100.5234       	90.60495       	89.24308       	94.77493       	94.61751       	93.47017       	
56.26273       	55.57442       	63.442196      	74.76553       	72.246956      	61.04202       	70.32782       	89.334236      	102.75817      	144.43207      	179.30026      	156.72246      	154.40692      	150.31523      	147.21336      	150.33958      	138.8732       	134.69188      	145.16876      	131.82195      	121.15034      	136.92117      	130.72379      	120.48226      	127.79172      	124.387245     	114.32629      	124.1009       	118.62939      	112.14059      	118.09427      	109.40606      	107.91055      	115.515465     	71.52308       	65.82684       	74.742065      	51.0167        	39.431057      	54.69116       	56.14284       	53.38636       	81.83021       	84.29316       	89.069534      	101.78012      	81.70672       	97.636566      	117.48487      	117.30098      	119.97448      	144.8631       	135.8915       	124.27928      	127.794075     	111.65306      	113.45611      	116.829346     	100.98823      	112.056465     	127.98324      	103.181076     	105.49409      	117.57502      	102.96362      	97.82581       	108.81656      	99.187294      	96.95753       	105.567024     	97.85844       	92.387886      	109.97283      	114.6619       	104.63715      	104.2658       	109.69325      	91.94388       	101.2752       	105.501625     	93.4701        	97.79382       	96.60453       	92.16194       	100.0222       	95.618324      	90.22799       	96.5452        	89.754074      	91.305984      	98.71798       	87.27132       	88.57342       	96.31384       	84.93494       	84.68461       	95.25494       	89.99284       	91.97063       	100.69828      	
57.275043      	63.903053      	65.63234       	59.937035      	52.420418      	60.499474      	67.21056       	66.887344      	88.98925       	125.29339      	168.24358      	161.86848      	158.5765       	145.1722       	138.07887      	146.20395      	136.69527      	136.21947      	142.07169      	130.63408      	122.61403      	134.13774      	126.316246     	118.67998      	136.97783      	124.36304      	118.17181      	123.4966       	121.62589      	116.194214     	123.53114      	121.17614      	114.88103      	120.8204       	113.40736      	89.97752       	80.49141       	70.07516       	50.01123       	65.07272       	77.68794       	73.36801       	100.29359      	106.310165     	94.534294      	110.261284     	122.79403      	119.81413      	129.04218      	132.51625      	120.26616      	117.89906      	121.41302      	113.895096     	111.95003      	116.238205     	110.405        	105.41491      	113.802765     	103.65202      	97.96678       	108.37484      	102.9928       	95.313545      	101.90059      	102.94815      	95.29492       	96.576706      	99.07755       	94.054436      	96.27221       	96.52719       	97.30258       	100.81219      	85.93035       	81.153435      	97.42005       	110.18222      	93.22326       	99.02569       	104.3382       	95.36039       	98.54819       	100.376816     	97.705635      	99.00209       	101.171036     	94.56412       	93.90799       	102.12434      	97.69486       	94.86214       	98.41964       	89.76392       	98.12007       	98.657906      	91.82744       	89.99121       	91.76561       	91.41991       	
56.92211       	57.10218       	63.198868      	65.85915       	61.25152       	61.09621       	67.16987       	68.97899       	74.94126       	100.52412      	161.6337       	165.86032      	151.91803      	149.58725      	144.27486      	141.48842      	140.78459      	141.35452      	133.52255      	128.76263      	128.20677      	131.19745      	126.259926     	127.38248      	121.226105     	126.625084     	125.710175     	119.21207      	119.8069       	123.125244     	110.20763      	115.92807      	127.520676     	108.090775     	113.81596      	117.480675     	90.06498       	79.22053       	89.89647       	84.53449       	96.519516      	115.39269      	110.51911      	113.711426     	125.06925      	124.049835     	111.212845     	117.96532      	102.35721      	95.32823       	110.94466      	104.48556      	96.94662       	100.29613      	102.33482      	96.841866      	102.55827      	103.65316      	98.31078       	97.32246       	95.47846       	96.494316      	98.03642       	93.486176      	92.02186       	97.03008       	98.12317       	91.74015       	88.330444      	98.23155       	101.23339      	83.37272       	100.33575      	97.52011       	89.78183       	99.8893        	95.56351       	90.42          	99.954025      	100.515656     	85.547356      	97.87245       	97.44427       	89.40109       	100.79143      	98.597305      	84.04371       	90.5668        	100.54748      	86.84884       	99.00906       	103.25158      	89.279015      	89.68239       	103.76195      	90.36295       	87.72572       	99.685585      	96.71924       	95.642654      	
56.69085       	55.96843       	60.1878        	63.418232      	62.521343      	66.71907       	77.621895      	73.76167       	68.340485      	90.38968       	152.02364      	158.57632      	152.664        	161.14963      	145.13786      	141.39175      	150.08096      	131.96008      	135.8391       	143.22488      	125.58937      	126.56044      	138.23721      	119.3354       	117.46339      	136.27798      	124.02432      	114.6995       	124.1884       	119.72835      	118.51652      	122.56518      	114.6916       	116.71703      	123.60688      	114.9508       	116.230095     	121.35779      	112.81283      	109.65504      	120.2196       	114.206406     	91.506645      	107.09816      	109.12428      	98.93199       	102.26704      	99.11112       	99.87806       	101.63521      	100.0003       	92.17532       	104.564445     	101.54379      	92.47639       	97.88384       	98.123795      	94.68206       	96.67981       	99.7968        	87.19792       	91.45092       	102.02504      	93.23283       	88.84916       	99.790474      	87.20374       	94.45021       	98.41827       	87.8475        	87.68891       	107.10316      	85.93753       	88.85857       	99.55226       	93.30748       	87.783615      	99.207695      	102.88847      	89.88799       	90.94085       	99.54182       	86.96949       	93.7918        	95.90079       	88.25818       	94.3914        	99.73959       	87.17172       	85.86522       	94.51446       	90.35094       	92.248215      	97.94315       	94.999954      	96.85563       	93.103226      	92.52359       	100.869705     	97.576416      	
61.87042       	62.705105      	64.85491       	64.65068       	63.37067       	68.9654        	70.60868       	66.72484       	72.934746      	99.037544      	131.16403      	155.15347      	168.83919      	157.972        	147.26324      	147.91403      	147.96442      	141.27321      	137.97311      	140.5607       	139.50937      	132.09772      	134.70468      	129.77432      	123.85857      	131.53267      	123.734985     	114.57462      	131.38606      	117.84066      	112.54121      	126.51435      	123.7721       	113.44381      	124.18758      	124.37238      	111.9295       	117.06486      	112.60868      	104.92775      	112.05429      	112.70182      	102.17419      	103.66579      	109.706245     	100.22552      	106.66724      	109.32227      	101.566246     	100.0311       	110.28734      	96.627426      	94.856064      	106.78653      	100.493774     	96.37487       	104.038994     	83.736824      	98.77849       	108.512436     	86.958534      	95.07726       	102.152466     	86.31151       	94.1007        	96.391         	86.6029        	90.09388       	95.61623       	83.792534      	94.07349       	92.70916       	81.601105      	100.93462      	95.96019       	88.90907       	101.12007      	96.74158       	92.96463       	100.94062      	96.20059       	88.49814       	104.55411      	95.58589       	86.81053       	103.922226     	94.74682       	88.07138       	101.09467      	96.739456      	82.17909       	96.26208       	95.178085      	85.52492       	96.12983       	92.72557       	83.82882       	95.193085      	88.267815      	81.34001       	
61.77905       	67.59338       	64.150154      	56.060318      	54.744267      	68.80408       	70.52084       	53.189613      	78.41551       	86.728806      	116.653534     	157.4269       	166.31593      	152.47754      	159.791        	146.46243      	137.82191      	149.55835      	145.69583      	125.25928      	138.68234      	144.0563       	121.97385      	134.50204      	129.06528      	118.23585      	127.01997      	125.99329      	112.69079      	123.46892      	124.234215     	111.13055      	124.631195     	122.13289      	104.12163      	124.06364      	124.00252      	101.63941      	113.68348      	108.909424     	98.83965       	113.84502      	105.409164     	99.144646      	109.68567      	103.961075     	98.62275       	108.12838      	100.10127      	94.67274       	110.198235     	97.01714       	96.3166        	105.39808      	97.08536       	96.286224      	104.18057      	95.12395       	94.148384      	106.20299      	96.379234      	91.849686      	103.93494      	89.61618       	90.75837       	106.22567      	93.01664       	88.78439       	98.54941       	93.95197       	89.586426      	94.60468       	92.14677       	85.848785      	100.42754      	95.89749       	91.89696       	97.74958       	95.85849       	91.694595      	95.354965      	97.919395      	89.68          	92.581856      	96.96597       	92.59034       	92.12746       	91.74716       	93.666016      	95.10088       	94.15218       	91.070885      	92.42432       	87.69697       	99.55307       	96.102036      	90.86647       	92.37056       	96.49861       	91.518364      	
53.910812      	54.596245      	60.53878       	69.385994      	65.17608       	63.506634      	68.01397       	73.70955       	69.45165       	80.032906      	117.5728       	142.1572       	173.63168      	158.99916      	152.38503      	147.85065      	147.65427      	139.87215      	141.7378       	135.6154       	133.4473       	134.49089      	130.00304      	129.78003      	127.06132      	115.6899       	124.10802      	130.2175       	115.61921      	119.50903      	123.24723      	112.93183      	117.587        	121.79781      	112.47098      	108.99976      	122.95684      	111.35258      	106.48202      	117.22737      	108.12901      	104.19645      	114.62105      	99.81093       	97.746956      	112.65819      	98.529785      	94.64013       	106.86518      	98.238045      	93.96186       	105.26256      	99.00614       	89.75456       	99.64378       	96.57085       	91.843636      	98.83362       	94.51253       	89.231026      	95.254524      	94.2643        	92.06351       	90.314705      	92.3211        	94.44722       	92.69444       	90.73764       	89.377754      	94.38903       	92.44351       	93.64588       	91.981636      	84.81657       	102.24529      	99.49089       	93.207634      	97.49885       	95.87114       	93.955826      	99.26381       	93.06794       	96.90022       	95.71839       	93.13927       	94.643364      	100.51144      	90.90657       	88.61792       	97.70916       	96.6845        	91.93344       	96.55535       	91.2202        	96.6833        	99.806366      	91.28755       	95.17473       	96.34325       	86.85383       	
67.55218       	56.36179       	54.252354      	65.33253       	81.112465      	78.73413       	80.714195      	84.273056      	87.17525       	76.26735       	96.822075      	131.43436      	162.04335      	160.34245      	161.2025       	139.92075      	146.06969      	146.06725      	130.41202      	136.62697      	142.55817      	121.01885      	125.9464       	132.91368      	119.34518      	122.73629      	122.92444      	114.07486      	124.97733      	114.74037      	108.33721      	118.75483      	112.19682      	102.8798       	115.06603      	115.77538      	98.83904       	102.85887      	118.68127      	98.81584       	101.21251      	116.11805      	106.76099      	107.85836      	108.16155      	98.670135      	111.10992      	107.50919      	95.848236      	106.33996      	107.4594       	86.808105      	100.08887      	108.12242      	93.95068       	101.629166     	101.840645     	92.46031       	99.59606       	98.812904      	86.36043       	102.87015      	103.13626      	83.15081       	99.51258       	100.40823      	82.794525      	97.33641       	103.80531      	80.5619        	88.04054       	105.95972      	85.69984       	88.38481       	103.43823      	86.05123       	95.57475       	102.91417      	87.37314       	87.67046       	97.81003       	93.20291       	94.65819       	99.652336      	90.50136       	92.00479       	98.09435       	96.49377       	96.79723       	98.52353       	98.15329       	97.33398       	91.553505      	93.18287       	94.51279       	91.7575        	92.23478       	99.729095      	98.55855       	82.76222       	
67.85444       	82.83163       	90.96752       	85.68661       	81.99936       	104.025986     	115.47702      	101.848236     	97.1075        	106.93533      	103.78484      	126.068474     	170.06934      	151.28491      	151.4979       	153.77785      	134.40044      	138.51678      	141.72214      	121.64338      	127.0558       	137.21979      	117.67687      	115.38133      	128.10623      	113.25227      	111.3863       	123.34885      	116.664345     	115.8484       	122.22435      	106.93921      	108.34769      	116.17508      	108.58908      	102.24987      	114.582756     	104.71813      	93.69011       	107.60192      	108.02059      	104.5234       	104.96211      	112.699585     	102.481445     	104.37633      	103.322105     	99.999146      	99.18079       	100.19052      	100.90978      	93.524216      	97.0105        	98.564         	94.807045      	92.78767       	99.34307       	93.40365       	92.995285      	97.69754       	95.183304      	94.89395       	95.972275      	98.43938       	94.44411       	91.085724      	92.20319       	89.479385      	93.25483       	95.70757       	91.896194      	91.72755       	89.34437       	102.31928      	96.5977        	92.49292       	98.02185       	91.755806      	93.709404      	96.72225       	96.83752       	96.073975      	92.98397       	89.64999       	99.34529       	92.60103       	94.73788       	94.563         	94.14668       	95.802925      	95.535515      	97.72587       	90.86311       	96.86437       	95.65901       	91.50048       	94.694214      	93.98626       	90.807495      	94.74191       	
72.968216      	70.63715       	75.90559       	89.205864      	99.372505      	91.88257       	94.319496      	110.205605     	96.778114      	106.16098      	122.86446      	138.79872      	152.73796      	144.24379      	129.72127      	129.05855      	140.50809      	125.65319      	124.42675      	131.12476      	122.31344      	117.58803      	121.87313      	118.32044      	114.160576     	112.89127      	112.38451      	113.05453      	109.38185      	111.225204     	115.34136      	109.29127      	110.02503      	108.670334     	104.63952      	109.35656      	109.51021      	101.90141      	101.54465      	110.051865     	107.42276      	92.8075        	105.288155     	97.69219       	101.14842      	104.49389      	98.16505       	92.87735       	107.34455      	100.83881      	96.577286      	103.72742      	93.2977        	94.90698       	105.20519      	94.43426       	93.71153       	100.447586     	91.94498       	101.198715     	104.843254     	95.14497       	94.84274       	101.1005       	101.02739      	92.23898       	102.733765     	97.17486       	92.17764       	105.097466     	102.31547      	95.408745      	91.61116       	104.77372      	94.11828       	94.91336       	98.85497       	96.34063       	93.63785       	102.57447      	98.61593       	95.43427       	96.30839       	98.87138       	90.56053       	97.87845       	102.52821      	85.12114       	95.13765       	102.29113      	91.844635      	93.162735      	99.3753        	93.77507       	94.57286       	99.06648       	91.83373       	94.19667       	101.587036     	90.93416       	
88.21516       	72.865875      	74.59853       	89.40414       	105.56774      	99.25848       	97.74665       	123.16692      	133.95114      	129.52992      	157.241        	139.17328      	117.115364     	122.211555     	122.34047      	103.791306     	117.48868      	122.1111       	104.49955      	107.40047      	116.818886     	101.61531      	105.78344      	110.070786     	98.18202       	99.885826      	111.46239      	98.50954       	96.11109       	104.5999       	98.59401       	100.39708      	105.06002      	98.9923        	102.38377      	100.1693       	99.363815      	100.811066     	96.11397       	91.49284       	98.07597       	96.34673       	88.00577       	92.5656        	96.19722       	91.4471        	97.48112       	93.457634      	83.59899       	94.784874      	95.91658       	88.463394      	99.86406       	91.17785       	86.81532       	98.90095       	95.76629       	86.30466       	91.17695       	90.39155       	92.308945      	93.13353       	92.22644       	87.50102       	91.76861       	93.76401       	88.26508       	99.84466       	91.58812       	86.016075      	87.8394        	95.89772       	87.889046      	81.32295       	95.0907        	89.07341       	87.3894        	94.291214      	86.72694       	86.09061       	97.09797       	91.27156       	83.337105      	92.362724      	93.43904       	83.30942       	95.0569        	94.73317       	82.762856      	89.47405       	92.97952       	79.21025       	88.88095       	104.48898      	86.51314       	91.146866      	93.18344       	84.65703       	96.67988       	97.51828       	
94.92676       	96.29594       	100.66023      	103.58467      	104.685295     	129.31407      	125.07008      	119.43188      	113.95207      	112.39929      	109.952286     	112.64947      	113.808266     	111.623405     	103.930176     	108.3433       	102.94028      	95.75174       	106.88362      	102.354935     	96.1505        	103.20084      	98.54204       	92.61586       	93.77046       	102.64171      	98.648125      	96.91292       	103.22692      	90.605995      	100.05273      	102.37591      	93.99577       	100.25392      	96.51766       	92.254         	101.46387      	98.265884      	91.185875      	93.74125       	98.308174      	94.02258       	95.96391       	92.448944      	92.69087       	100.4364       	89.1848        	88.65812       	96.606766      	90.690155      	88.98851       	100.26614      	95.506454      	88.46257       	96.60345       	99.92171       	88.17876       	93.49244       	92.99081       	86.60772       	96.95464       	91.16257       	88.62326       	92.90307       	91.64692       	94.23326       	92.907524      	94.52787       	90.5545        	91.58863       	93.38363       	98.58053       	92.66191       	95.04704       	94.75156       	95.73656       	94.114204      	101.07677      	94.67006       	92.75324       	99.38276       	98.88136       	97.12157       	93.89759       	95.30293       	92.46642       	90.96237       	93.8024        	97.05922       	89.74439       	96.02035       	94.98705       	86.51279       	90.048706      	95.14062       	89.351074      	97.621635      	98.41672       	86.98796       	92.278885      	
104.98079      	101.499985     	109.298325     	117.04698      	112.391106     	99.90588       	97.82073       	106.30774      	102.09272      	94.90157       	97.224625      	94.818596      	99.86401       	98.94927       	92.41268       	94.52986       	95.899376      	92.32205       	93.351326      	98.67201       	96.13322       	91.85578       	93.4648        	92.57433       	92.5174        	91.5791        	86.3337        	101.08775      	93.150505      	83.58266       	97.83256       	93.17651       	89.70421       	93.752045      	97.30119       	88.545395      	95.555954      	94.47857       	89.05428       	94.460884      	92.73854       	83.59576       	95.315414      	91.11934       	86.9112        	88.91459       	93.4609        	86.444824      	85.64428       	95.8316        	97.27908       	84.616745      	96.99647       	87.93989       	88.05167       	84.822845      	92.40828       	87.03959       	83.70523       	88.67535       	89.31676       	89.23244       	95.02742       	92.936325      	84.997925      	78.120674      	88.926445      	95.374344      	84.8715        	88.34827       	93.369026      	86.35896       	92.49984       	90.78814       	85.935776      	94.80008       	89.72433       	89.337654      	94.955315      	91.348114      	85.64249       	97.39799       	95.39479       	88.5044        	93.70716       	90.875435      	89.90714       	99.6174        	96.950676      	92.51777       	98.53975       	95.18028       	89.90225       	99.868256      	97.221245      	88.51188       	98.10529       	98.65738       	93.21587       	89.055916      	
96.84349       	88.82377       	89.14405       	91.06401       	94.00589       	102.43973      	98.5549        	103.7847       	97.3525        	89.276665      	103.75464      	96.37155       	93.14269       	99.827866      	95.91135       	92.634315      	97.56086       	94.145454      	97.42326       	93.91579       	93.99765       	92.6494        	92.77609       	87.65929       	91.79924       	95.675095      	89.05993       	92.86134       	94.34102       	89.314644      	91.56974       	103.10243      	87.54537       	92.2456        	90.50749       	89.604805      	101.10533      	95.79951       	83.7834        	90.404335      	98.59614       	81.70068       	79.68815       	93.68795       	83.76754       	88.35361       	98.8618        	93.50597       	86.48803       	92.44229       	98.44213       	85.25725       	98.70574       	90.76364       	84.707535      	92.85686       	90.93511       	84.1607        	91.939896      	96.160576      	90.8958        	92.787056      	95.51031       	85.947945      	92.65319       	94.72379       	83.457535      	91.57296       	92.8472        	84.91702       	90.91566       	95.76652       	88.41232       	83.93047       	95.92951       	87.98743       	85.25776       	97.29151       	91.18438       	87.14213       	97.984535      	87.58581       	86.07012       	99.84529       	89.63185       	86.18543       	98.28099       	90.54493       	88.57122       	103.37167      	90.80995       	88.33693       	99.168175      	93.28065       	94.07739       	95.14971       	90.62968       	88.59612       	96.99585       	91.17322       	
93.179405      	93.88334       	93.6091        	99.62101       	109.2643       	105.22123      	101.76225      	103.075836     	101.28503      	96.94653       	100.473434     	95.201996      	92.95185       	102.510735     	97.827255      	89.380585      	89.14859       	104.50334      	98.94274       	90.85361       	101.41755      	94.441414      	91.362595      	100.87455      	91.84766       	91.95812       	97.6934        	93.5174        	90.11364       	98.788994      	83.73453       	85.8973        	108.25209      	96.77254       	94.05413       	97.13574       	95.89339       	96.807014      	98.79324       	93.10684       	87.78033       	94.72241       	90.01912       	90.66933       	90.83725       	83.64286       	84.97497       	90.18905       	89.253815      	93.050545      	96.46297       	95.19446       	87.95928       	92.16793       	89.38311       	89.42355       	90.1508        	88.3629        	86.20002       	89.14326       	93.079544      	88.18124       	89.57585       	88.44351       	86.46089       	87.10849       	93.97759       	92.95334       	88.40797       	93.61507       	93.05683       	80.05535       	90.81967       	90.292915      	85.9613        	90.97375       	99.49398       	88.235115      	85.65052       	96.341156      	91.258705      	87.97318       	97.38194       	86.333176      	94.50919       	97.49434       	89.57594       	91.79772       	95.24269       	89.38787       	88.86302       	97.9874        	84.08229       	89.108696      	101.36012      	81.79359       	86.699066      	96.99348       	89.312164      	94.932755      	
97.78666       	101.9689       	96.16806       	92.46536       	102.84211      	118.28929      	104.76147      	97.37995       	105.390915     	99.46571       	89.55253       	103.79909      	101.19967      	88.78178       	109.51818      	104.29686      	86.21692       	99.36121       	98.80319       	87.22468       	98.12553       	101.96219      	90.075195      	94.821236      	92.02271       	92.77942       	99.59925       	95.59419       	88.125496      	97.72872       	91.694595      	88.411865      	101.004776     	95.19185       	88.61128       	98.415054      	94.29276       	86.41947       	95.67503       	93.47774       	86.44524       	96.08756       	91.54689       	79.21457       	81.36121       	102.79572      	92.44665       	76.16717       	94.54708       	99.85477       	98.5678        	101.43876      	85.199394      	92.59911       	101.45753      	87.41422       	88.09433       	90.9409        	78.69235       	89.48033       	94.84794       	83.61963       	87.42477       	95.19719       	89.52979       	92.59813       	93.866936      	87.86665       	95.49132       	93.90785       	86.744675      	83.765434      	90.86092       	88.643875      	87.568         	91.95968       	93.955765      	93.26836       	101.36686      	94.80763       	80.56587       	96.13665       	102.49285      	87.30512       	92.23518       	92.72861       	88.59006       	91.19472       	94.770676      	88.95412       	88.33912       	92.22987       	92.23055       	88.837776      	89.76327       	98.23082       	90.028755      	90.1733        	94.00229       	90.304886      	
93.88939       	86.180435      	86.1462        	94.865974      	107.012344     	102.791985     	94.21754       	100.529594     	100.80885      	90.73357       	90.67394       	105.96229      	84.80505       	95.449066      	106.08271      	86.190765      	98.56326       	105.25642      	85.576035      	91.511925      	104.54002      	84.854706      	89.63806       	106.274345     	86.955605      	85.38608       	101.41159      	94.07089       	82.81037       	98.965935      	95.91525       	79.49394       	96.222626      	90.827446      	83.638176      	96.92204       	83.80624       	79.28785       	103.92013      	87.39037       	75.462234      	99.26332       	87.0037        	76.833725      	101.7826       	87.633705      	81.352135      	92.28271       	80.31774       	91.71575       	91.19068       	82.00801       	80.394585      	98.17933       	85.93014       	80.38616       	106.68471      	89.296844      	76.038704      	99.79822       	90.6139        	82.33704       	101.98231      	89.64891       	77.37172       	100.83605      	93.675934      	79.12101       	98.06946       	94.426895      	77.78725       	98.8522        	98.338974      	74.067314      	93.34201       	102.142944     	78.35402       	95.53293       	107.17748      	82.195404      	93.74935       	102.88283      	82.774086      	91.1296        	101.11525      	90.75624       	93.206245      	98.85005       	90.11555       	90.71158       	101.65766      	89.14516       	93.14098       	101.719406     	90.08187       	87.32301       	105.89981      	96.26751       	88.462036      	99.2564        	
85.72234       	87.3613        	93.8381        	95.82861       	92.391396      	91.777176      	97.25009       	102.837456     	98.668564      	99.62686       	101.887665     	96.79689       	97.10387       	102.95629      	98.378876      	99.366165      	105.31026      	88.808685      	89.09569       	105.621666     	92.937126      	91.70596       	94.32879       	92.64649       	95.179985      	92.518425      	91.57382       	94.7843        	91.63268       	89.15951       	97.19571       	95.66258       	89.8331        	92.79455       	96.69352       	86.00455       	93.554535      	98.14487       	89.13379       	93.02023       	90.81558       	89.01783       	95.03947       	90.74409       	79.16926       	100.551346     	98.897415      	83.45424       	92.95332       	93.38988       	79.27918       	93.69352       	98.899864      	82.827034      	88.46022       	95.44233       	87.31383       	90.26971       	93.75422       	86.47484       	87.49818       	97.70733       	89.04869       	93.54988       	84.55599       	90.86443       	94.54005       	88.86792       	94.71691       	95.09299       	88.39383       	94.101166      	92.31843       	91.16756       	90.99389       	90.12379       	86.40824       	95.07312       	94.622185      	86.321976      	95.6064        	93.83098       	88.88011       	88.16549       	92.74496       	92.038864      	89.63238       	89.94832       	91.027435      	92.72337       	89.08504       	85.18367       	89.430534      	89.76175       	87.574005      	90.43124       	91.7258        	87.96021       	93.961555      	99.74623       	
97.90275       	82.36361       	83.86726       	97.30816       	112.992        	101.656876     	92.19394       	106.8586       	99.796715      	84.42338       	102.21455      	99.049324      	82.81629       	104.89684      	96.72763       	82.86319       	107.610344     	101.98798      	85.77315       	98.694214      	92.04472       	88.37243       	99.69367       	95.75325       	87.25058       	98.281235      	98.536514      	87.626335      	93.37529       	88.718216      	85.71559       	98.352585      	98.4346        	89.28942       	91.20429       	99.63052       	88.64509       	87.26543       	96.998245      	96.14751       	91.41429       	97.83101       	86.74943       	90.06355       	90.46381       	89.888214      	89.3411        	94.32529       	93.95565       	91.439285      	93.72568       	93.07529       	92.174065      	87.93421       	93.003624      	94.63963       	88.0837        	94.84795       	95.64537       	91.323524      	75.84042       	100.24169      	94.760056      	82.71791       	100.200226     	96.366905      	83.610146      	97.8131        	93.47077       	85.28983       	96.289116      	89.34367       	87.76039       	97.531784      	92.67817       	81.68507       	103.90226      	105.59539      	85.96361       	96.342636      	100.24055      	87.83887       	98.48088       	96.103096      	90.3877        	95.73937       	93.096146      	87.08948       	94.09743       	94.04721       	84.81452       	93.73316       	92.8719        	82.96502       	92.771675      	97.134445      	93.30367       	88.71045       	95.67406       	89.74261       	
96.29325       	83.66582       	83.11585       	98.185165      	110.29808      	101.744026     	97.93546       	106.91216      	96.4236        	87.28016       	105.4228       	101.1376       	91.922935      	107.40693      	100.08577      	97.43979       	105.61663      	96.09069       	96.99123       	106.455635     	93.48637       	94.34621       	102.31164      	90.009415      	95.13173       	101.94815      	90.054596      	90.167244      	97.74609       	88.79956       	93.72319       	103.003586     	85.04698       	101.61918      	100.6886       	84.79109       	94.739784      	104.329384     	89.80797       	97.278946      	96.40189       	86.88289       	100.21497      	96.09049       	82.88502       	92.78029       	95.09683       	90.84025       	96.805         	88.776535      	73.590416      	102.95936      	98.736534      	76.54439       	100.5407       	97.46985       	82.87247       	98.124756      	95.44869       	85.539566      	93.535614      	92.949425      	86.96569       	95.729485      	85.603096      	88.28719       	95.11594       	89.503975      	89.67375       	92.25196       	92.66036       	92.483734      	86.521904      	87.87575       	93.01928       	90.03673       	90.303276      	90.733475      	96.434586      	88.60376       	84.01623       	98.29542       	94.662476      	85.62985       	86.66317       	94.67118       	88.14226       	88.40918       	96.42671       	89.46008       	90.91564       	95.10486       	90.26779       	89.81337       	95.92844       	92.94165       	87.687164      	92.51872       	95.15547       	96.59168       	
81.94566       	85.01421       	95.25733       	103.41806      	93.667984      	84.99605       	97.98018       	107.36473      	96.25844       	98.60326       	101.70443      	91.72803       	96.047775      	104.85268      	97.08482       	94.25848       	100.42115      	96.78673       	95.95011       	94.65596       	93.34994       	94.09489       	98.48603       	96.30958       	96.19978       	93.21921       	94.13098       	97.94243       	94.2358        	94.61292       	92.99125       	89.932205      	95.05435       	103.051056     	87.9514        	89.7699        	100.21994      	86.25776       	88.08578       	95.844795      	87.90152       	88.38429       	98.63118       	83.00338       	81.82262       	102.39143      	83.346466      	82.07716       	107.12072      	81.71423       	82.663216      	99.26915       	86.77893       	79.39152       	97.451324      	89.67873       	79.93534       	100.54845      	87.99438       	81.04712       	106.403946     	87.99618       	82.71085       	100.5149       	86.92378       	88.00013       	104.49226      	85.02351       	81.314735      	107.643684     	89.335434      	81.08524       	98.75508       	92.45015       	79.75935       	90.39234       	83.98864       	102.79062      	123.6984       	98.10066       	95.364784      	97.871056      	86.19926       	83.96754       	94.0562        	87.12362       	90.94776       	97.577095      	89.3838        	87.16183       	96.721085      	93.00313       	92.15311       	100.98105      	82.9817        	90.06065       	101.65946      	86.527435      	86.45421       	97.27138       	
92.87558       	87.75424       	84.20167       	89.15462       	99.46705       	94.35737       	83.76032       	93.23503       	95.58155       	82.71935       	91.00387       	100.19115      	82.60887       	88.832436      	102.71833      	83.797356      	97.37692       	99.53256       	87.718704      	97.80587       	105.22347      	89.403534      	93.167725      	110.365395     	94.56004       	89.27474       	110.34219      	88.886505      	89.079865      	108.43503      	92.8882        	84.30439       	104.98066      	92.31359       	84.24932       	98.76294       	87.9632        	92.57434       	109.8391       	91.46098       	79.29729       	101.9952       	91.282295      	76.344154      	96.08505       	89.396286      	85.115654      	104.98755      	101.83949      	82.82677       	100.72282      	92.76651       	86.62837       	100.99864      	90.301636      	84.763145      	101.450325     	99.74153       	87.13618       	97.02386       	101.8175       	85.988         	90.89902       	102.87703      	89.1288        	93.07187       	96.699394      	80.700615      	81.82771       	79.981674      	55.66773       	51.61341       	41.679485      	22.927773      	25.394413      	34.72297       	39.594242      	58.2032        	109.12479      	118.83196      	117.03456      	124.35145      	115.591835     	108.910194     	115.62906      	109.13844      	108.13405      	118.915375     	103.80099      	102.30489      	113.79084      	105.21776      	95.64009       	104.953285     	101.934845     	101.63763      	115.15706      	105.60678      	100.03026      	112.51359      	
99.98596       	89.4104        	86.4289        	92.67119       	95.70329       	93.52185       	94.07803       	91.85905       	95.26865       	97.58159       	98.92223       	106.061325     	98.89611       	90.95021       	106.83467      	105.042435     	96.91032       	102.04726      	99.2127        	96.5203        	101.021805     	98.95446       	89.15618       	103.0105       	99.0741        	85.69206       	98.15727       	98.21073       	87.06786       	101.49638      	95.5057        	85.5148        	99.189156      	98.65844       	89.285416      	93.031364      	92.81543       	86.80908       	100.447235     	95.63927       	87.31312       	97.55676       	96.2961        	83.90352       	87.39554       	92.14697       	91.36356       	88.27426       	96.078         	92.699394      	86.47609       	90.617874      	88.63901       	87.29986       	96.603134      	89.25898       	87.42294       	85.79166       	84.75704       	98.80014       	90.49018       	87.21107       	94.05043       	92.50042       	88.47761       	82.38314       	55.22283       	29.37953       	31.070833      	26.926422      	17.355461      	23.556807      	24.437428      	15.195399      	21.254719      	27.047777      	23.476673      	39.09467       	95.73275       	133.08359      	124.72326      	135.26842      	121.60823      	118.8423       	129.6          	113.16545      	115.31304      	128.52943      	112.63725      	110.11747      	115.403854     	114.803055     	112.28698      	112.31517      	103.826645     	104.29845      	112.69589      	108.18482      	108.5335       	105.95143      	
90.19665       	102.120964     	99.26004       	86.34761       	84.39616       	99.26184       	100.67643      	89.431145      	104.54362      	97.60588       	81.532684      	104.65955      	98.198654      	81.47883       	107.05324      	103.62796      	88.377365      	106.72442      	106.37357      	85.47375       	97.81033       	106.6646       	88.215324      	101.29271      	102.9723       	83.866714      	101.182724     	101.78172      	83.587814      	86.11959       	106.68153      	87.94694       	88.80876       	107.94039      	96.403305      	94.002716      	108.13419      	96.806526      	91.21228       	112.600334     	94.20334       	92.601204      	105.399536     	87.16174       	82.47363       	102.69059      	96.69137       	91.02611       	100.492485     	91.736885      	88.22801       	104.21338      	90.032265      	89.42627       	103.92456      	90.40428       	93.62582       	110.63252      	91.03783       	89.7985        	99.025215      	82.92635       	61.01143       	55.464798      	37.379223      	21.30676       	26.571556      	21.627937      	16.73991       	28.740496      	27.116924      	20.694075      	31.370556      	40.420303      	34.754234      	39.41994       	49.92034       	52.805264      	89.08223       	147.15848      	135.19115      	134.96976      	140.0331       	128.85605      	127.86978      	133.72218      	121.46308      	124.13099      	128.05069      	114.97828      	113.797005     	124.11984      	119.82089      	111.732796     	116.824165     	109.59151      	109.01753      	120.26652      	112.75429      	111.085        	
87.05797       	94.09471       	94.80144       	93.51724       	92.05444       	96.55171       	93.26583       	89.428604      	103.620834     	98.86632       	88.68485       	93.60324       	94.98474       	97.614746      	102.689835     	98.39982       	95.648285      	103.004036     	99.976555      	98.379654      	102.141846     	94.88525       	94.01338       	100.13176      	90.455986      	95.55649       	99.35592       	91.53174       	90.64803       	92.81805       	91.688705      	93.3803        	97.52546       	93.023125      	93.15373       	97.61059       	94.671524      	94.53233       	101.67777      	90.657036      	98.68229       	100.23732      	87.259155      	99.094086      	108.74034      	85.127426      	98.05824       	97.93204       	83.957184      	91.48238       	101.45577      	88.904976      	91.98105       	95.11081       	85.20628       	91.2351        	78.264206      	42.642525      	30.769047      	43.812416      	36.64251       	20.943703      	34.96256       	25.322508      	18.24338       	39.805027      	32.04962       	23.24046       	45.549747      	39.397385      	35.725403      	51.25145       	49.651054      	35.197025      	50.71789       	53.55112       	42.45579       	57.73137       	83.749825      	124.26806      	167.58414      	144.00357      	135.03519      	139.08672      	138.14519      	130.50021      	134.49303      	130.89658      	123.35754      	128.36661      	125.50172      	117.915665     	121.978645     	123.6657       	118.37301      	114.425446     	114.27637      	119.3105       	116.52933      	112.22088      	
91.54636       	93.05887       	98.82983       	102.28632      	95.45018       	97.60843       	102.303055     	99.48249       	99.85487       	101.09769      	104.20885      	101.74291      	97.25073       	100.18692      	102.78769      	98.26458       	102.078        	99.63192       	99.100716      	104.38147      	102.67526      	97.431465      	97.82686       	98.14111       	98.955124      	99.94214       	103.11882      	88.37769       	89.44067       	103.94142      	95.03113       	88.82565       	104.43941      	94.4364        	94.02861       	102.86779      	92.65144       	84.8653        	101.8796       	97.50488       	92.33605       	99.97042       	91.60315       	90.58349       	97.55165       	91.64322       	88.61712       	92.41638       	97.38527       	91.0584        	94.81408       	93.972946      	72.228676      	50.899254      	44.507732      	38.50428       	28.836164      	23.799877      	21.3148        	25.764778      	26.564018      	24.22168       	29.884434      	38.409996      	41.79734       	43.93878       	41.177006      	47.122032      	48.341637      	52.130714      	54.53915       	54.87717       	54.510944      	60.096153      	63.563908      	48.850548      	60.766113      	66.57569       	82.05319       	123.07002      	154.14955      	149.19063      	150.35115      	149.27988      	130.94482      	139.78102      	144.64401      	129.84778      	135.77763      	126.44799      	123.85389      	131.58063      	124.670074     	118.1163       	130.01073      	118.06097      	111.04649      	123.60977      	118.27553      	105.57899      	
101.94069      	110.4252       	104.08713      	92.10263       	92.080605      	108.55185      	99.289665      	92.53212       	104.10946      	94.10441       	87.949936      	107.27584      	95.71125       	89.0509        	96.82671       	95.94874       	96.12076       	97.41          	100.55929      	91.36332       	91.0003        	95.48438       	103.73632      	107.391525     	98.09262       	103.25755      	109.19409      	98.78434       	100.42939      	103.18141      	95.4766        	100.814285     	96.397675      	95.18825       	96.388336      	96.52666       	93.376335      	101.28586      	102.82659      	84.40781       	101.23665      	97.92172       	85.397545      	101.13578      	92.47291       	85.24161       	93.702034      	71.56463       	59.99568       	73.72835       	44.44172       	23.573513      	32.26932       	22.474272      	15.301326      	34.028633      	28.365894      	15.676535      	34.629856      	40.321995      	27.86859       	45.43945       	43.886147      	33.98697       	48.669624      	53.25382       	51.867287      	51.67527       	57.55695       	56.961613      	57.4278        	72.63215       	61.578762      	61.791256      	68.014496      	57.044216      	59.42611       	76.39771       	83.37865       	122.659065     	145.32736      	165.52042      	149.59238      	153.12509      	140.43896      	134.00089      	137.09897      	132.67116      	126.9544       	132.18475      	129.64017      	115.64845      	129.13089      	129.56128      	118.97553      	128.22252      	122.28936      	116.31778      	124.80003      	125.862656     	
90.92647       	85.69111       	92.59268       	103.54707      	100.79969      	93.40801       	97.22619       	103.234665     	91.83941       	87.674675      	108.79637      	91.91651       	87.60164       	106.08133      	94.825554      	100.7111       	112.19203      	97.07475       	98.108955      	107.294174     	92.14303       	94.754814      	107.623985     	86.68663       	91.64783       	109.00815      	85.27867       	87.07569       	108.15724      	91.749115      	90.11095       	104.20519      	86.202774      	98.55995       	103.48458      	85.29399       	90.0068        	106.86003      	83.32197       	90.52458       	105.024254     	88.52026       	91.53431       	94.35326       	66.66797       	52.98558       	51.48759       	18.075218      	9.45422        	39.8936        	20.377333      	12.117003      	40.108334      	20.704733      	22.331543      	50.524353      	31.09245       	31.840187      	59.344093      	38.556446      	39.063805      	67.88239       	45.810715      	50.030434      	69.14064       	43.80451       	61.020596      	78.38737       	54.15072       	58.49508       	83.537125      	61.678013      	68.28202       	83.068474      	59.376823      	58.059853      	71.670876      	66.103905      	84.96363       	111.90353      	148.71518      	166.19412      	165.5139       	143.71902      	146.3746       	157.0981       	131.32733      	136.86191      	147.32646      	128.49039      	129.06705      	138.98227      	129.26877      	125.56152      	132.64403      	119.8608       	119.05366      	125.05925      	114.39389      	117.461105     	
96.3796        	101.42101      	102.25976      	96.22325       	91.10629       	101.20616      	103.75647      	92.54031       	96.83076       	100.48311      	95.25362       	94.93367       	95.413376      	98.323685      	101.4104       	107.31593      	101.95448      	100.94984      	97.86072       	108.170586     	104.11548      	98.90458       	103.20489      	104.90042      	95.142006      	103.688385     	109.35216      	102.96599      	92.4686        	99.4845        	104.48389      	94.07296       	101.29591      	104.773605     	91.057335      	98.08086       	105.3162       	92.0612        	99.12711       	100.6112       	93.49261       	97.856476      	71.37706       	25.127382      	20.342297      	26.670565      	18.084496      	19.811584      	23.059956      	23.605366      	34.012447      	32.13405       	35.052986      	42.122715      	38.89963       	42.332253      	56.20254       	47.552227      	46.72235       	63.10968       	55.957607      	56.964615      	65.269646      	57.853745      	62.152237      	69.69853       	63.142666      	61.095554      	74.883965      	69.03478       	67.18123       	75.81786       	64.704475      	75.64587       	75.81593       	58.632744      	76.492546      	72.8355        	83.80411       	113.00012      	154.70955      	172.51018      	159.89865      	162.57527      	150.15216      	147.37062      	152.2787       	139.25478      	138.6322       	142.39322      	133.24016      	130.50145      	132.16057      	132.01605      	123.2509       	126.63505      	131.9258       	117.29516      	122.939255     	123.16276      	
93.31555       	95.601776      	98.42839       	99.32011       	98.01613       	100.69873      	106.56503      	101.55376      	96.07033       	95.51187       	96.839005      	96.984535      	94.0502        	100.03264      	110.32899      	102.85379      	96.65807       	100.82866      	101.29396      	89.958824      	95.65736       	107.32243      	117.205215     	109.52724      	101.97596      	88.35944       	103.90889      	104.45122      	89.921715      	97.245834      	97.47779       	84.17018       	99.8039        	97.76624       	84.56714       	87.55844       	94.92099       	94.7061        	96.92358       	98.43485       	88.93909       	65.6225        	36.11715       	9.825779       	7.8763986      	17.845016      	14.285801      	23.597939      	32.941         	24.6631        	30.237093      	48.37473       	38.939953      	44.15774       	51.91227       	49.489883      	55.386448      	54.30102       	44.479755      	65.12536       	67.94655       	55.604286      	60.2497        	66.8237        	64.55224       	66.50334       	73.129364      	66.567276      	71.45134       	76.385086      	70.90474       	71.84279       	76.5876        	72.9737        	72.80384       	76.67687       	70.78655       	72.16101       	87.044304      	107.38555      	142.56882      	181.5842       	164.5984       	157.53209      	158.16258      	144.2699       	142.624        	152.71567      	134.52011      	136.51004      	141.35246      	128.61778      	129.54974      	134.64227      	121.79738      	125.28557      	133.49942      	122.27908      	114.89188      	125.13387      	
93.243324      	90.64613       	97.10574       	106.85209      	106.50007      	86.987175      	99.10914       	111.12257      	86.437         	103.693695     	113.56669      	90.844536      	99.142204      	121.37901      	90.83614       	93.62386       	117.97354      	88.94682       	96.92829       	111.99276      	86.684395      	92.73755       	124.83228      	92.442535      	89.071884      	115.16495      	91.52987       	86.87447       	110.85175      	94.488846      	86.3589        	114.511024     	95.15001       	85.08316       	100.63534      	102.694305     	91.525406      	97.22016       	101.66767      	89.11735       	89.69913       	55.880737      	27.71409       	28.870241      	11.462603      	6.129979       	24.700052      	27.244137      	22.809502      	39.27239       	31.713022      	35.273075      	48.173325      	41.27343       	40.415688      	53.309284      	47.81268       	49.2443        	62.058346      	54.74141       	61.229214      	58.550407      	57.55358       	63.717068      	63.625835      	59.8951        	70.79683       	73.14613       	52.759342      	76.05057       	73.656456      	62.981895      	73.688156      	79.45179       	61.973225      	74.279175      	76.61486       	66.22831       	78.80856       	94.14673       	125.17213      	175.60548      	159.88197      	153.9675       	154.88576      	152.04666      	143.5535       	139.84837      	139.33345      	139.75995      	139.3408       	133.39517      	127.99235      	128.8933       	128.90958      	124.60759      	123.88933      	122.0896       	121.53357      	122.51954      	
108.48096      	97.061905      	92.39554       	97.98595       	106.84029      	103.877686     	92.11793       	98.476654      	106.09502      	92.15679       	96.92772       	93.34089       	97.53816       	102.94348      	98.23012       	97.56468       	99.31486       	104.97438      	101.732666     	96.783554      	107.42665      	99.48624       	91.60373       	102.438995     	103.303185     	87.87507       	93.67982       	106.89202      	93.970184      	99.373886      	96.98262       	90.164635      	97.88258       	100.40496      	87.75788       	89.648445      	97.437256      	87.77901       	91.13746       	102.792114     	88.43226       	62.620968      	49.595943      	30.116262      	7.688567       	18.106194      	21.818735      	13.804627      	28.94875       	36.48773       	27.75652       	40.217594      	38.437874      	40.07316       	48.916817      	49.93119       	50.953003      	50.41764       	55.570942      	63.502956      	69.24309       	66.89668       	61.006447      	65.899734      	63.74912       	66.363945      	70.270706      	64.558426      	65.19557       	73.98115       	66.08974       	70.51597       	78.96943       	67.033585      	62.443417      	78.63481       	69.73003       	60.7916        	78.88067       	84.041466      	112.19637      	170.51492      	154.66974      	151.2108       	151.99478      	143.62735      	153.7338       	148.67683      	133.6771       	134.90094      	141.67403      	126.34531      	128.5106       	134.20067      	120.57787      	128.93211      	131.68889      	113.16171      	120.74109      	132.96664      	
96.49248       	95.93221       	92.52523       	94.95399       	99.05037       	98.6867        	93.62809       	97.70661       	98.881386      	96.3258        	83.827934      	95.67406       	107.133224     	91.047554      	101.95027      	106.54932      	97.83956       	98.289314      	102.80375      	94.917984      	103.02918      	100.84596      	92.05344       	100.45114      	102.06039      	89.28758       	97.0652        	105.47966      	91.508865      	90.93504       	98.53145       	95.11027       	99.274796      	93.97761       	94.05744       	94.392365      	98.194534      	89.63563       	95.89153       	100.74337      	96.0712        	82.75917       	58.83591       	29.84442       	20.940853      	27.608809      	20.487806      	18.817928      	28.907393      	36.03375       	37.918003      	46.80556       	40.13322       	39.89338       	58.37245       	45.488945      	46.191444      	62.751858      	48.8876        	46.74351       	69.124725      	58.514988      	49.337826      	71.47769       	68.5702        	58.840252      	72.69044       	72.80134       	60.233578      	87.58964       	77.02811       	55.14838       	77.85721       	79.44148       	54.09641       	78.9154        	75.77739       	56.59348       	74.4167        	87.432304      	89.28786       	149.41266      	195.2552       	159.31424      	148.56421      	158.99658      	138.96352      	144.96915      	149.54845      	137.16376      	136.55133      	138.49445      	129.2512       	124.567215     	132.63809      	125.21545      	122.00841      	130.90388      	121.40927      	121.85707      	
104.96371      	98.14228       	94.646194      	94.68729       	107.261345     	111.011215     	96.638176      	103.05516      	106.84759      	96.59611       	109.82931      	108.07366      	94.08644       	109.04374      	106.85231      	93.7098        	104.20174      	106.825485     	97.89605       	103.89006      	105.411385     	96.410774      	100.888626     	102.41344      	95.9673        	104.220985     	95.998795      	83.42349       	103.94012      	100.266594     	86.552605      	100.4397       	94.98078       	86.43334       	102.80782      	103.25036      	86.10479       	100.679        	98.454636      	90.439606      	103.631226     	83.12294       	39.935074      	43.550144      	27.18188       	2.013308       	24.175415      	34.019672      	11.31331       	37.476204      	41.54108       	26.45628       	45.361633      	55.652023      	37.077793      	45.25931       	60.472637      	44.950825      	59.086258      	65.92368       	50.125175      	63.17326       	72.93826       	59.758804      	65.8241        	69.401955      	62.921814      	73.61525       	75.65899       	70.52711       	82.31742       	82.16439       	69.51977       	77.29227       	75.75997       	68.738625      	77.3486        	67.14143       	67.562164      	80.12737       	95.86259       	131.73358      	172.72018      	160.7815       	149.74364      	142.6271       	145.31425      	139.70819      	143.29175      	144.14862      	135.38914      	130.00897      	131.42528      	125.418495     	126.71928      	129.45161      	119.74902      	122.518326     	134.92361      	120.19455      	
102.96821      	93.59157       	94.54123       	101.727554     	110.41532      	105.69069      	95.85222       	109.156        	109.09017      	98.09057       	111.69483      	112.70613      	100.5336       	94.606026      	88.33013       	85.205696      	96.116646      	114.22108      	114.762085     	115.49813      	113.23968      	94.280396      	105.739784     	105.82263      	95.73746       	100.1631       	103.03582      	89.46242       	97.97363       	101.5027       	94.52352       	98.05805       	94.549065      	94.84595       	99.68026       	96.13234       	91.32589       	94.338135      	101.17073      	93.84272       	94.94997       	96.36612       	51.159508      	33.80398       	33.093662      	22.024143      	11.665782      	33.47169       	33.759712      	26.127281      	40.717678      	38.996372      	29.789753      	49.40258       	44.7721        	40.5227        	54.629543      	58.55888       	54.169724      	61.813156      	63.236572      	54.353676      	60.12362       	67.521095      	56.308044      	67.609024      	70.36378       	60.405624      	66.04971       	76.73725       	59.37296       	65.700645      	82.19087       	66.326836      	66.710464      	79.69304       	62.383247      	70.08747       	74.92103       	65.32323       	87.92872       	135.17142      	161.34113      	175.49086      	167.41925      	150.1201       	150.71988      	155.33495      	138.95155      	136.23656      	139.81618      	132.73952      	131.37958      	134.54214      	126.7087       	121.368805     	130.53952      	126.21802      	120.69124      	128.05565      	
103.77515      	99.659004      	97.51134       	102.663704     	109.14848      	102.918        	102.71591      	104.41945      	102.86454      	105.0717       	98.11131       	68.89241       	40.666245      	37.051216      	28.88552       	29.30327       	48.49446       	66.07128       	123.8455       	136.49474      	120.50013      	121.67032      	123.3929       	110.74771      	108.069496     	116.01673      	105.06042      	107.115425     	114.92872      	101.88668      	98.257965      	109.97907      	107.23697      	102.46684      	105.99315      	105.25671      	100.43364      	111.37488      	102.354645     	96.18689       	111.42913      	101.16447      	63.799435      	51.88401       	37.365784      	20.834597      	27.55482       	29.455395      	20.539572      	22.602352      	44.67134       	37.319176      	42.05462       	50.667213      	46.152508      	48.40236       	67.22485       	61.967342      	53.15425       	56.092384      	61.60978       	65.22426       	63.49787       	64.49777       	59.927795      	69.81188       	69.32164       	61.995         	78.86351       	75.07874       	60.32702       	83.02398       	86.03757       	62.190475      	75.96044       	81.930176      	66.11077       	70.96107       	74.16944       	61.94421       	84.578865      	117.86316      	154.11185      	177.10251      	165.34392      	138.51054      	152.02968      	156.08977      	133.17921      	140.51294      	151.06036      	130.90009      	131.83449      	146.3206       	119.500885     	124.6176       	132.16266      	116.37191      	126.467926     	133.7052       	
102.97759      	112.476265     	112.21534      	110.35795      	106.08371      	99.05119       	68.67282       	36.411495      	44.0338        	47.596592      	36.798588      	40.15232       	28.411255      	27.93393       	34.834732      	28.203938      	37.51162       	71.014145      	114.65427      	151.74391      	137.96622      	130.88777      	132.91853      	128.34044      	112.756355     	132.61649      	133.64955      	104.5918       	123.66237      	124.49645      	103.508415     	117.06177      	122.36934      	108.209175     	116.99372      	116.47138      	104.21257      	115.108894     	115.58884      	106.93139      	116.62226      	112.7625       	81.32944       	69.593636      	53.981834      	27.18214       	30.738647      	33.78636       	23.01862       	38.264492      	45.62715       	33.4366        	48.923794      	55.242134      	38.53044       	54.759068      	68.19062       	47.5965        	64.71885       	78.87015       	54.660152      	63.45947       	71.500046      	64.74881       	66.98184       	77.18401       	69.62547       	68.63131       	78.81198       	70.54196       	73.46081       	79.4753        	70.25644       	73.44497       	80.13444       	66.36681       	73.79219       	77.15168       	64.182594      	71.75916       	81.955894      	90.40522       	142.83731      	176.513        	144.83708      	152.19614      	151.40994      	132.7272       	139.69948      	147.9405       	130.60916      	128.42418      	145.87175      	128.0717       	122.190506     	136.59703      	128.12422      	118.02604      	129.45206      	126.725815     	
79.673096      	85.46443       	82.74429       	68.79694       	49.04982       	45.0936        	44.76724       	30.000965      	36.69208       	44.08112       	33.207504      	44.153442      	62.846542      	49.894897      	46.770042      	53.592136      	49.30099       	63.86363       	100.371216     	153.12167      	159.60487      	153.062        	144.7986       	141.49937      	139.49872      	132.52911      	133.02142      	136.84892      	125.14749      	122.09567      	128.0611       	120.16009      	115.64759      	123.705765     	118.98111      	118.807976     	119.50297      	113.43857      	111.3532       	114.06709      	116.17988      	120.531296     	110.52417      	77.908165      	58.74788       	45.260014      	34.520668      	34.323196      	34.74549       	45.864014      	44.71386       	44.91123       	47.150192      	52.498188      	49.51478       	49.02873       	60.96232       	57.841106      	54.713326      	71.43648       	75.47447       	59.101986      	63.333317      	73.88692       	64.43291       	67.9203        	75.448845      	68.01972       	70.1531        	82.12255       	67.413124      	71.11105       	81.28802       	70.918625      	80.00949       	78.014786      	67.93843       	78.84024       	75.068054      	60.6815        	78.64255       	97.03471       	125.688446     	174.21243      	163.10294      	144.44733      	147.88997      	156.2864       	139.69337      	144.43655      	145.7678       	125.75619      	140.01828      	132.4069       	116.79839      	134.90623      	130.22348      	115.314285     	129.89139      	126.401596     	
