# www.neaspec.com
# Scan:	 	Whitelight Imaging
# Project:	 	20251007_PS
# Description:	 	
# Date:	 	10/07/2025 13:44:09
# Scanner Center Position (X, Y):	[µm]	49.99	50.01	 
# Rotation:	[°]	0	 	 
# Scan Area (X, Y, Z):	[µm]	5.000	5.000	0.000
# Pixel Area (X, Y, Z):	[px]	100	100	1
# Interferometer Center/Distance:	[µm]	546.342	0.000	 
# Averaging:	 	1	 	 
# Integration time:	[ms]	5	 	 
# Wavenumber Scaling:	 	1.000000	 	 
# Laser Source:	 	4.5-15 µm nano-FTIR laser
# Detector:	 	R
# Target Wavelength:	[µm]	7.502	 	 
# Demodulation Mode:	 	Fourier
# Tip Frequency:	[Hz]	241,340.500	 	 
# Tip Amplitude:	[mV]	45.700	 	 
# Tapping Amplitude:	[nm]	76.624	 	 
# Modulation Frequency:	[Hz]	0.000	 	 
# Modulation Amplitude:	[mV]	0.000	 	 
# Modulation Offset:	[mV]	0.000	 	 
# Setpoint:	[%]	79.75	 	 
# Regulator (P, I, D):	 	4.206850	8.625812	1.000000
# Tip Potential:	[mV]	0.000	 	 
# M1A Scaling:	[nm/V]	0.426	 	 
# M1A Cantilever Factor:	 	1,000	 	 
# Q-Factor:	 	487.4	 	 
# Version:	 	2.1.11536.0
82.15544       	81.97637       	82.10773       	82.3151        	82.27653       	82.41985       	82.371635      	82.562004      	82.29066       	82.26341       	81.92461       	82.391136      	82.5548        	83.55499       	83.440735      	85.116455      	82.58345       	77.459236      	73.538765      	72.42522       	70.72832       	71.73732       	72.22046       	73.08142       	72.47001       	73.49142       	72.53116       	73.92716       	72.14388       	71.29018       	73.59593       	72.5152        	71.715706      	73.21506       	73.14224       	74.51212       	75.54621       	75.4789        	77.20595       	77.31219       	77.74134       	78.19751       	75.83132       	78.49378       	81.07898       	81.36936       	82.97164       	83.865074      	83.825935      	83.41125       	83.26734       	82.29672       	82.51367       	83.004715      	83.092064      	82.79353       	81.99825       	81.68412       	81.77278       	82.07102       	82.259155      	81.71987       	81.65231       	82.1217        	81.83576       	82.27932       	82.16414       	82.41217       	82.6685        	82.23782       	82.05976       	82.430244      	81.82197       	82.2678        	81.893394      	81.954124      	82.09022       	82.20412       	82.16239       	82.80955       	82.31455       	82.39919       	82.47636       	82.78114       	81.51098       	82.320435      	82.66027       	82.47704       	81.69858       	82.14893       	82.340355      	81.73056       	82.33856       	82.49908       	82.29571       	81.832695      	82.33027       	82.627975      	82.39979       	82.46785       	
81.84898       	82.521225      	82.09569       	81.60579       	82.30202       	82.55963       	82.103676      	82.0963        	82.11327       	82.20141       	82.74915       	82.36289       	82.744286      	83.03098       	83.77534       	83.9747        	83.43012       	76.9424        	73.68134       	71.60199       	70.4916        	71.115776      	71.68371       	71.36437       	72.71079       	73.09832       	73.06559       	72.56029       	73.41023       	74.13958       	73.07924       	73.24483       	75.714195      	73.71712       	75.39673       	75.10911       	76.62545       	76.67094       	80.37          	78.80905       	79.67043       	81.36268       	84.83256       	84.81213       	84.458786      	84.144196      	82.880974      	84.28993       	83.89847       	83.24406       	83.1358        	82.251656      	81.718155      	82.12918       	83.114555      	82.2586        	82.792656      	82.55736       	82.44755       	83.45151       	82.247154      	82.477234      	81.71032       	82.267975      	82.319954      	82.988976      	81.711876      	83.36418       	82.47147       	82.508316      	82.857346      	83.21165       	82.521194      	82.49314       	82.52156       	82.41592       	82.69558       	82.73471       	83.34095       	82.42824       	83.264275      	83.2467        	83.22088       	82.758095      	82.60487       	82.69103       	81.940506      	83.25483       	82.55117       	83.10962       	82.78431       	83.29924       	83.13727       	83.640335      	83.11015       	83.92907       	83.46386       	83.190125      	83.97424       	82.55984       	
82.288864      	82.5974        	82.56182       	83.10974       	82.58603       	82.318275      	82.99606       	82.89462       	81.977905      	82.16904       	82.751236      	82.61727       	82.93882       	85.749214      	84.043945      	82.7537        	85.11732       	78.0773        	74.449         	71.99843       	71.14968       	70.090416      	70.648796      	71.51937       	72.556946      	73.90187       	74.22132       	74.62546       	74.9817        	75.32593       	76.50432       	74.93112       	77.48946       	77.53132       	76.76695       	78.28322       	80.460075      	80.62105       	83.87126       	84.44156       	84.815475      	83.77551       	84.78841       	83.505714      	83.25033       	84.06757       	83.1038        	83.2778        	83.542076      	82.93068       	83.01998       	82.97315       	82.80389       	83.04128       	82.556366      	82.52788       	82.698166      	82.93105       	83.1357        	82.49872       	83.00483       	82.34624       	82.74703       	82.45814       	82.80511       	82.43071       	82.866         	82.88913       	82.70426       	83.56376       	82.27832       	83.06818       	83.49914       	82.76864       	82.50502       	83.006905      	82.39989       	83.35201       	83.94792       	83.11328       	83.68058       	83.74435       	83.22935       	82.75282       	83.47435       	83.26558       	83.511314      	82.78353       	82.9638        	83.06236       	83.27657       	83.786835      	83.62659       	83.9058        	82.90101       	84.423645      	84.336914      	85.12148       	84.557175      	82.73703       	
82.339966      	82.66422       	83.192314      	83.00839       	82.42539       	83.14424       	83.01113       	82.218285      	82.93601       	82.73584       	82.67442       	83.76239       	83.77567       	84.209785      	84.17648       	83.50204       	86.35986       	80.15503       	75.37837       	74.09226       	73.532646      	73.75715       	72.86627       	72.81057       	72.81613       	74.792244      	76.6501        	76.42234       	76.35278       	77.47826       	78.357666      	77.98891       	80.68893       	80.466286      	84.521324      	84.733604      	84.50274       	85.28756       	85.278725      	83.81938       	83.28723       	83.72898       	83.433685      	82.95949       	83.64818       	83.33217       	83.29201       	83.36235       	82.63171       	83.40239       	83.13578       	82.436325      	82.065384      	82.7803        	82.228676      	82.98516       	82.8904        	82.664314      	83.89931       	82.6136        	82.61934       	83.19272       	82.54367       	82.85805       	82.84257       	82.62197       	82.757965      	82.603455      	82.662476      	82.84206       	82.9525        	82.83444       	83.06393       	83.24137       	83.53679       	82.68237       	82.94255       	84.25645       	83.298836      	83.51876       	83.320946      	83.01684       	83.46823       	82.71283       	82.84158       	83.35766       	82.52912       	82.603874      	83.46236       	83.52249       	83.649925      	84.243416      	83.52216       	83.81852       	83.62516       	83.465744      	84.02483       	83.62306       	83.97398       	84.52286       	
83.639496      	83.686386      	83.50654       	83.30767       	83.519485      	83.49288       	83.91371       	83.93047       	83.64669       	83.980385      	84.12626       	84.27105       	84.4384        	84.26543       	85.002335      	85.654945      	87.26199       	83.77122       	80.8815        	79.576904      	77.44927       	76.76885       	75.10937       	75.99911       	77.32726       	75.91349       	78.97652       	79.66904       	80.11743       	80.808815      	85.384605      	84.86156       	84.7942        	85.270096      	84.34489       	84.23023       	84.321266      	84.0876        	83.77638       	84.08515       	83.6316        	83.44867       	83.93145       	83.2502        	84.07544       	83.7509        	83.353386      	83.78847       	83.814415      	83.39462       	82.863075      	83.470856      	83.02499       	82.603424      	82.13515       	83.92265       	83.00369       	82.933586      	83.2868        	82.41598       	83.16063       	82.21357       	83.3594        	83.27627       	83.069786      	83.55457       	83.281235      	82.92132       	83.14016       	83.35906       	82.93847       	83.03433       	83.700165      	83.49288       	83.595085      	83.60589       	82.77491       	82.813965      	82.77253       	82.45027       	83.181465      	83.03812       	83.27556       	82.62373       	82.932884      	83.33067       	82.74577       	82.44457       	83.03062       	82.48668       	84.13307       	83.31972       	83.15752       	84.11418       	83.626236      	83.69056       	83.24442       	84.901054      	84.71439       	83.39253       	
83.28865       	83.26165       	83.77394       	83.35982       	83.85372       	83.18513       	83.32922       	83.2219        	83.96767       	83.95271       	83.60015       	84.147575      	84.708145      	84.74226       	84.98443       	84.73687       	86.10369       	86.81005       	85.26772       	82.06017       	79.43481       	78.6003        	79.254326      	78.56483       	79.66828       	81.77008       	85.80569       	85.50689       	84.39353       	85.24647       	85.27807       	84.17759       	84.1434        	84.80113       	84.38829       	83.99722       	83.93901       	83.467865      	83.0976        	82.8921        	83.49485       	83.63922       	83.09493       	83.76712       	83.19476       	83.26567       	83.353836      	83.41741       	83.15763       	83.202896      	83.32355       	82.90047       	83.29041       	82.91541       	83.08499       	83.51576       	82.9937        	83.53032       	83.60624       	83.06024       	83.33994       	83.674706      	83.30947       	82.43328       	83.32829       	82.65373       	83.33504       	83.45615       	83.342064      	83.054596      	83.72605       	83.91211       	82.90315       	83.69737       	83.2271        	83.5641        	83.479546      	83.47508       	82.77412       	83.61073       	83.54886       	83.54516       	82.72811       	83.379074      	84.19602       	83.15703       	83.418655      	82.704056      	83.36809       	83.50709       	83.54861       	83.04959       	84.526596      	83.5478        	83.208435      	82.57702       	85.861         	82.392265      	81.16857       	81.95463       	
82.41886       	82.84683       	82.75322       	82.83253       	82.576485      	82.48766       	82.546234      	83.21339       	82.97356       	83.64289       	82.9071        	83.04917       	83.637146      	83.693054      	83.369385      	83.6907        	85.38983       	83.89049       	85.73821       	87.62589       	85.25142       	85.88737       	85.04599       	84.40693       	85.45333       	84.96876       	85.14492       	85.43164       	84.37824       	85.04704       	84.114426      	84.16022       	85.65013       	85.647675      	82.92374       	82.76861       	83.83309       	83.932205      	83.42409       	83.55695       	83.88488       	83.83119       	83.088646      	83.33419       	83.71834       	83.56143       	83.52981       	82.721504      	83.85589       	83.81115       	83.202286      	83.1638        	83.67255       	82.68598       	82.97027       	83.53113       	83.42993       	83.54012       	83.37165       	83.502075      	83.368484      	83.56539       	82.88616       	83.36127       	83.06757       	84.24957       	83.645195      	83.742134      	83.35325       	83.72158       	83.85089       	83.436844      	83.86832       	83.66476       	83.793434      	83.46303       	83.44536       	83.71451       	84.873886      	83.4284        	84.13079       	84.24619       	83.615814      	83.82437       	83.6316        	83.912964      	83.54484       	83.27446       	84.80205       	84.306885      	84.053856      	84.89866       	84.36866       	84.76617       	86.88014       	84.91076       	82.460556      	82.82384       	82.51575       	81.95148       	
81.588715      	81.37943       	81.557465      	82.505486      	80.84908       	82.77958       	81.784035      	83.152435      	82.373314      	81.352         	79.53539       	82.444824      	82.31434       	81.68797       	82.31519       	81.78909       	84.950424      	82.782684      	81.22057       	83.65623       	83.21036       	83.43086       	84.345505      	83.29291       	82.992         	83.41771       	83.21126       	83.350296      	82.9879        	82.88407       	82.7632        	83.35002       	83.785385      	83.16835       	81.46447       	81.69497       	82.80315       	82.666985      	82.59646       	82.89625       	83.135254      	82.53917       	82.580956      	83.04313       	82.97713       	82.84791       	83.142876      	83.03622       	82.81902       	82.71954       	83.00586       	82.528175      	82.326164      	82.37542       	82.69747       	82.832         	82.643524      	83.00906       	82.665565      	82.850876      	82.96692       	83.15308       	82.924126      	82.79624       	83.22474       	83.042404      	82.96571       	83.16634       	82.81155       	83.096         	82.48746       	82.45197       	83.93718       	82.65326       	83.70084       	82.71836       	83.09418       	83.299736      	82.75386       	82.86064       	82.959984      	82.43144       	83.08295       	83.600334      	82.88379       	82.9316        	83.57266       	83.13358       	83.11248       	82.93859       	83.351685      	83.41311       	83.33774       	83.25844       	84.533325      	86.03621       	84.32899       	81.30413       	81.9097        	82.828514      	
82.81772       	82.14279       	83.19941       	82.62432       	83.04075       	83.22317       	83.134865      	82.52151       	82.96879       	83.029526      	82.39343       	82.71882       	82.89431       	82.71839       	82.9354        	82.48514       	83.72612       	83.7206        	83.47713       	83.076675      	83.41003       	84.01908       	82.91445       	83.512856      	83.05758       	83.39141       	82.75942       	83.468346      	82.57813       	83.36259       	82.63832       	82.660126      	82.67029       	83.21292       	82.478325      	82.75319       	82.784355      	82.13198       	82.271614      	82.68384       	82.58332       	82.77987       	82.388214      	82.21188       	82.02055       	84.66372       	82.50265       	82.56935       	82.61175       	82.926155      	82.207924      	81.95745       	82.02776       	82.01103       	83.11412       	82.513695      	82.69325       	82.38858       	82.48282       	82.91417       	82.50263       	82.19863       	82.69429       	82.10671       	82.43513       	83.374275      	82.34288       	82.73215       	82.47106       	83.823944      	82.59414       	82.31372       	82.790474      	81.86015       	82.80362       	82.111534      	82.4982        	82.88704       	82.827934      	82.283424      	83.148766      	83.45779       	82.8012        	82.922035      	82.665886      	82.38348       	85.35918       	82.6508        	82.496376      	82.48974       	82.93754       	82.50044       	81.95093       	85.551445      	82.73023       	84.80395       	84.24887       	81.38182       	81.87399       	81.937325      	
82.44096       	82.61186       	82.81618       	83.266624      	83.07074       	83.67286       	83.45548       	82.83583       	82.64369       	83.154625      	82.909386      	83.30182       	83.193115      	83.259735      	83.22468       	82.76208       	83.10763       	83.31726       	82.75963       	83.36493       	82.90462       	85.68127       	84.104774      	82.846466      	82.53986       	82.88274       	83.154305      	83.179115      	82.66581       	83.46014       	82.41953       	82.32211       	82.33585       	82.10396       	83.90221       	82.420105      	82.89584       	82.79699       	82.50136       	83.053764      	82.25823       	82.090935      	83.03332       	82.762856      	82.734245      	85.29511       	82.83411       	81.76457       	83.207825      	84.02994       	86.1126        	83.593155      	83.19157       	84.01405       	84.00428       	83.063034      	83.536         	83.917015      	84.08057       	84.17476       	83.86334       	85.228874      	83.809135      	82.80756       	83.71318       	83.86453       	83.740906      	83.49627       	83.33377       	83.875824      	83.295944      	83.811066      	83.82144       	83.17295       	83.98873       	83.01654       	83.4638        	83.98863       	83.70416       	83.76304       	83.928505      	83.9998        	83.95274       	84.304436      	83.919685      	83.71534       	83.59109       	83.45313       	84.47603       	84.13266       	83.859955      	84.50706       	84.58332       	84.42982       	84.44177       	84.35206       	84.97447       	87.90277       	87.331184      	85.18959       	
83.66251       	83.33223       	83.72468       	83.55357       	83.00872       	83.47949       	83.72283       	83.10326       	83.26122       	83.30694       	82.95218       	83.81042       	82.99712       	83.352715      	83.39119       	83.57593       	83.998184      	83.47735       	83.91367       	83.55431       	83.41509       	84.154175      	83.761314      	83.254105      	83.760864      	83.89085       	83.36381       	83.4202        	84.32853       	84.008606      	83.53218       	84.35227       	83.6014        	83.88974       	84.03891       	83.71085       	83.36845       	83.443634      	83.678604      	83.21588       	83.546974      	83.393265      	83.86638       	83.61509       	83.94262       	83.926926      	83.47937       	83.570946      	83.810555      	84.215256      	83.64249       	84.08523       	84.03563       	83.97376       	84.24543       	84.53256       	84.71345       	84.81763       	85.002235      	86.23234       	87.12592       	83.21644       	80.98449       	80.52154       	83.31423       	83.67982       	83.923515      	84.20217       	84.05193       	83.809425      	83.69952       	84.185905      	84.052734      	85.061165      	85.16572       	83.49742       	83.623634      	83.70948       	83.59632       	83.997314      	84.216965      	83.62404       	84.81806       	84.17209       	84.17179       	83.56098       	84.00118       	83.76227       	84.587746      	84.48483       	83.83882       	85.69009       	84.56575       	85.334854      	85.13367       	85.422935      	85.38341       	86.47668       	84.84313       	83.53913       	
82.06909       	82.53292       	81.81224       	82.49599       	82.43071       	82.31049       	82.120674      	82.09578       	82.5049        	82.14978       	83.456345      	82.13737       	82.201126      	82.68228       	82.84251       	81.95144       	82.42105       	82.178535      	82.71386       	82.25555       	82.12849       	81.7212        	82.07186       	82.31486       	82.59531       	82.427605      	81.5284        	82.23518       	82.0087        	82.225845      	82.59744       	81.9101        	82.267654      	82.1618        	81.74396       	81.66076       	81.48093       	82.53523       	81.99254       	81.84719       	81.140686      	81.37223       	81.08127       	82.468315      	81.76356       	82.09574       	81.6725        	82.157814      	82.12647       	81.28906       	82.451996      	81.64748       	81.8416        	82.27453       	81.61181       	81.472275      	81.847496      	82.23248       	82.36434       	82.2569        	82.25088       	81.22118       	82.808         	82.2128        	81.79752       	81.57254       	82.56006       	82.790855      	81.521645      	82.39223       	81.90037       	81.86991       	81.900635      	81.91285       	81.856224      	81.59231       	81.4514        	82.862274      	81.9982        	83.42148       	82.041336      	82.84026       	82.02564       	81.3551        	81.875175      	81.62986       	81.265594      	83.404526      	83.41056       	81.52002       	80.21028       	80.94354       	83.62893       	84.12831       	84.36531       	83.73329       	84.13188       	84.49394       	83.80339       	84.20068       	
83.29435       	83.77716       	83.3726        	83.53002       	83.42805       	83.212746      	83.86624       	83.433395      	83.364395      	83.44207       	82.71348       	83.42852       	83.34257       	83.90116       	83.40824       	82.95453       	83.57526       	82.92358       	83.64035       	83.61376       	83.25223       	83.54098       	82.70531       	83.23132       	82.76062       	82.88496       	83.16656       	83.402145      	83.23036       	82.70414       	83.195366      	83.566414      	82.90877       	82.73678       	83.40865       	83.432945      	82.63186       	83.06236       	83.66696       	82.89897       	83.680084      	83.3026        	83.34427       	84.17845       	84.47416       	83.87347       	82.60501       	82.90112       	83.4667        	83.57693       	83.23617       	83.250465      	83.31625       	82.98453       	83.26481       	83.01339       	83.22633       	82.81416       	84.62502       	83.61676       	82.88674       	83.37562       	83.16209       	82.626144      	82.8141        	82.4282        	82.947174      	83.07094       	83.13531       	82.8874        	82.78338       	83.07863       	83.37635       	84.46782       	81.4784        	83.00794       	84.29095       	83.547455      	83.60665       	83.45213       	84.23367       	84.22869       	84.60281       	83.92293       	84.28811       	84.27034       	83.805435      	83.74957       	84.41494       	83.59952       	83.96893       	84.340996      	84.43154       	84.87086       	85.06433       	84.42563       	86.97143       	87.12789       	84.301704      	82.729065      	
83.5505        	83.66603       	83.3134        	83.66857       	83.6723        	83.81032       	83.25452       	84.05371       	83.78849       	84.39732       	83.453316      	83.66462       	83.60086       	83.98961       	83.58027       	84.08029       	83.802765      	83.888016      	83.82064       	83.68163       	83.4516        	84.38673       	83.258224      	83.5811        	83.386536      	83.65491       	83.69137       	83.4421        	83.54329       	83.74438       	83.181755      	83.73656       	84.07531       	83.33939       	83.406654      	83.69644       	83.62843       	83.65794       	83.69605       	83.801155      	84.09809       	83.665535      	84.04848       	84.84754       	86.08695       	83.36736       	81.96598       	82.67233       	83.2359        	82.92118       	82.59338       	83.01846       	83.03435       	81.29902       	83.31545       	83.8583        	83.34724       	83.96685       	84.256874      	83.71272       	84.20622       	83.97197       	83.93292       	84.054344      	83.72256       	83.846275      	83.943245      	84.10318       	84.058975      	83.91452       	84.511154      	84.19041       	84.69484       	83.8793        	83.83726       	83.77349       	83.61449       	84.02972       	83.97658       	84.27312       	83.689095      	83.94638       	83.8725        	84.716484      	84.81746       	84.26264       	84.10923       	84.35852       	84.69972       	84.16483       	84.24295       	84.163445      	84.48712       	84.71645       	84.36977       	84.87233       	84.91643       	85.640236      	85.76632       	86.57626       	
83.55619       	83.77037       	83.5712        	83.37419       	83.01469       	83.12455       	83.26297       	83.93806       	83.06522       	83.14815       	83.37823       	83.167114      	83.64056       	83.809135      	83.64553       	84.12938       	83.7404        	83.83434       	83.64057       	84.13286       	83.01855       	84.54969       	83.26549       	83.267815      	83.429436      	83.36859       	83.48522       	83.48425       	83.78188       	82.96298       	83.38524       	83.55063       	83.34731       	83.56117       	83.41566       	83.034065      	83.78362       	83.24484       	83.45559       	83.542725      	82.92048       	82.953186      	83.66629       	83.3268        	83.174995      	83.50165       	83.729744      	83.8382        	83.51633       	83.26525       	83.24935       	83.18565       	82.887245      	83.63032       	82.86185       	82.91442       	83.08874       	86.08669       	84.78728       	82.989845      	81.84317       	84.26052       	83.965706      	84.058914      	83.755875      	84.350975      	83.91438       	84.86993       	84.71475       	84.24779       	84.381935      	84.43975       	84.21397       	84.50273       	83.53237       	84.7139        	83.69331       	83.52123       	84.005936      	84.83408       	84.31264       	84.51407       	84.56455       	84.8066        	85.05311       	85.10276       	84.86047       	84.310814      	84.52599       	84.69663       	84.56946       	84.74983       	84.69214       	85.67278       	84.8601        	83.7869        	86.46947       	86.75616       	80.74868       	76.80832       	
83.05528       	84.026505      	83.75116       	83.19955       	83.781586      	83.8226        	83.65565       	83.465546      	83.53787       	83.2564        	83.52583       	83.703865      	83.29128       	83.43974       	83.18058       	83.09958       	83.87434       	83.16095       	83.43267       	83.67014       	83.72441       	83.70038       	83.474785      	82.78463       	83.05248       	83.43527       	82.83164       	83.392136      	83.733246      	83.28084       	83.95972       	83.78117       	83.247925      	83.1645        	83.666504      	83.578094      	83.46952       	83.603096      	83.78287       	82.89057       	84.32452       	83.654686      	83.68723       	84.03602       	83.49117       	83.84785       	83.83014       	83.34526       	83.984825      	84.328674      	83.63264       	83.64608       	84.032005      	83.39606       	83.64999       	83.73058       	83.344215      	84.03617       	83.85606       	84.05463       	83.995995      	83.92869       	84.41025       	84.11531       	84.64023       	84.03952       	83.978966      	84.116844      	83.92248       	84.02159       	84.29268       	84.060524      	84.06536       	84.42695       	84.42344       	84.58916       	84.018295      	84.648544      	84.11111       	83.984856      	84.15243       	83.8767        	84.07766       	84.03904       	84.20095       	84.25982       	84.09997       	83.86047       	83.541084      	83.052986      	87.99853       	84.46731       	81.40968       	80.60866       	78.83719       	76.296616      	75.136925      	75.65856       	75.3073        	73.37996       	
82.49834       	83.56099       	83.50857       	84.32051       	83.7384        	83.262405      	83.40206       	82.84818       	83.82126       	84.247635      	83.54308       	83.249016      	83.14254       	83.295906      	84.02163       	82.54908       	82.83985       	83.58626       	83.61028       	83.05617       	83.812706      	83.96916       	83.29153       	83.51663       	83.22716       	82.37359       	82.9524        	83.6085        	83.48872       	83.88199       	83.286156      	83.13312       	82.85234       	83.26309       	83.32724       	83.46713       	82.98391       	83.110146      	83.59953       	82.70524       	83.1293        	82.52059       	84.0228        	83.27695       	82.622314      	82.949936      	82.61986       	82.7459        	82.98865       	82.88508       	83.339836      	82.94724       	82.88778       	82.42145       	82.47021       	82.44303       	81.93224       	83.693985      	83.726616      	84.29512       	83.82772       	83.60113       	83.4677        	83.66055       	83.85912       	83.83451       	83.78114       	83.85          	83.552345      	83.56685       	83.70734       	83.97473       	83.682945      	84.313934      	84.23378       	83.29748       	83.84676       	84.2057        	83.63067       	83.51071       	83.71813       	83.61049       	83.69608       	83.98502       	83.59416       	83.77772       	83.8428        	86.16775       	83.52445       	78.8309        	76.05609       	74.0378        	73.38566       	72.86846       	72.32385       	71.420815      	71.81984       	72.19189       	72.16129       	72.1426        	
82.7623        	83.17295       	82.68264       	82.509094      	82.85576       	83.09733       	82.87417       	82.44933       	83.28411       	82.210464      	82.89159       	83.09567       	82.68404       	83.04173       	82.13453       	82.76362       	83.24158       	82.20881       	83.353386      	82.91607       	82.756485      	82.81792       	82.94374       	83.26125       	82.609566      	82.55298       	83.13164       	82.82602       	83.248024      	82.449425      	82.5551        	82.598854      	82.58588       	82.463066      	82.78944       	82.40057       	82.742455      	82.99001       	82.26647       	82.38849       	82.97676       	82.83732       	82.73245       	81.279305      	83.18583       	83.40043       	83.41463       	83.18453       	83.17057       	82.66773       	82.936325      	83.399925      	83.17497       	83.36123       	82.50141       	82.73056       	82.62961       	81.89784       	83.41807       	82.72053       	83.16019       	83.24131       	83.229294      	83.04075       	83.376175      	83.27856       	82.98485       	83.64733       	83.22224       	83.73728       	82.95531       	83.53679       	83.418884      	83.162865      	83.00195       	83.01955       	83.68336       	83.339455      	83.11351       	83.73283       	83.86122       	83.35006       	83.33277       	83.76032       	83.05765       	84.77781       	85.23884       	77.925         	72.80161       	71.33272       	71.374626      	71.02785       	71.029274      	70.7685        	70.99803       	71.819664      	71.87621       	72.58227       	72.433846      	72.155556      	
83.40503       	83.5071        	83.16237       	83.68958       	83.585815      	83.040794      	83.4242        	83.05247       	83.2214        	83.098305      	83.472916      	82.71127       	83.29171       	82.76944       	83.231155      	83.0823        	83.31792       	83.13373       	83.63289       	83.28259       	83.52504       	83.7882        	83.67892       	82.70304       	83.248024      	83.35849       	83.17259       	83.2597        	82.62189       	83.40944       	83.26347       	83.32016       	83.32885       	83.358         	82.847015      	83.78517       	83.006584      	83.50697       	82.93853       	83.23814       	83.601585      	82.80315       	83.88109       	83.34712       	83.09718       	83.34783       	83.61773       	83.17876       	83.23869       	83.49232       	83.12702       	83.52773       	84.16739       	83.646675      	83.340385      	82.88189       	82.91291       	83.53816       	83.33473       	83.49214       	83.30996       	83.936745      	83.94747       	83.77606       	84.09095       	83.551605      	84.2098        	83.42586       	83.719864      	83.73348       	83.74081       	84.22972       	83.95177       	83.49619       	84.317604      	83.46601       	83.94542       	84.26232       	84.16713       	85.81983       	84.66994       	83.1724        	83.042694      	83.540085      	87.38589       	82.39791       	76.034584      	72.50914       	70.226395      	70.37021       	71.242035      	71.528946      	71.797325      	71.75409       	72.48745       	72.289154      	73.01987       	73.34561       	72.70464       	72.46525       	
83.750244      	83.71626       	83.201416      	83.50731       	83.89491       	83.51068       	84.11126       	83.22232       	83.4759        	84.11673       	83.879005      	83.79077       	83.67423       	83.38329       	83.58638       	83.882454      	83.66141       	83.81196       	83.19996       	83.47865       	83.73161       	83.78111       	84.402435      	83.752144      	84.4345        	83.15689       	84.08264       	83.77948       	83.8788        	83.94884       	83.78316       	83.74064       	84.06105       	84.09074       	84.02668       	84.06959       	84.02175       	83.703156      	83.71841       	83.80558       	83.753075      	83.95818       	84.27979       	83.82502       	83.29233       	83.75618       	83.86475       	84.3302        	83.73782       	83.62336       	84.274086      	83.94486       	83.455185      	84.1858        	83.90425       	84.1549        	83.66794       	84.12789       	83.91197       	83.78918       	84.36962       	84.44125       	83.974174      	83.92717       	84.130424      	84.07857       	84.230316      	83.826706      	84.20273       	83.8684        	84.47931       	84.00823       	84.11829       	84.17801       	84.26362       	83.42574       	84.166794      	84.51102       	84.225716      	84.65157       	84.270294      	83.85501       	85.24118       	84.80168       	86.67329       	78.105316      	73.84633       	72.00261       	70.6591        	70.99431       	71.23729       	71.35307       	72.72989       	72.10875       	73.88934       	72.43869       	72.22818       	73.50205       	73.67839       	72.888145      	
83.19847       	83.33239       	83.457825      	84.16126       	83.62948       	83.52899       	83.507805      	83.670784      	83.30881       	83.405785      	83.65063       	83.35627       	83.93612       	83.61926       	83.60289       	83.36669       	83.47263       	83.38156       	83.42375       	83.83317       	83.39592       	83.35573       	83.93324       	83.545746      	83.65999       	82.82928       	83.33218       	83.02461       	83.198875      	82.88921       	83.746155      	83.74516       	83.29368       	84.76364       	82.68009       	82.77068       	83.122055      	83.54474       	82.73049       	82.8418        	83.66477       	83.59576       	83.15215       	82.68856       	83.72451       	83.22629       	82.92563       	82.75679       	83.1478        	82.96953       	83.11339       	83.15041       	83.10493       	83.49991       	82.62611       	83.17681       	83.18781       	83.08906       	82.855385      	83.22968       	83.07759       	83.11282       	83.29991       	83.571594      	83.40072       	83.27324       	83.27591       	83.62445       	83.14548       	83.79723       	83.19418       	83.74389       	84.09722       	83.77537       	83.39457       	83.5056        	84.071625      	83.270706      	84.011314      	83.657684      	84.858025      	84.67279       	84.06856       	84.202545      	86.789604      	78.22883       	74.48912       	72.14769       	70.953224      	71.20819       	71.48257       	72.452156      	72.636826      	72.8736        	75.1608        	73.29719       	72.77346       	73.44435       	73.91637       	73.87113       	
83.48265       	83.8282        	83.69355       	83.69965       	83.64382       	83.51251       	83.714226      	84.11561       	83.59541       	83.90882       	83.716484      	83.6011        	83.58962       	83.46595       	84.098045      	83.4215        	84.04085       	83.64428       	83.17119       	84.053764      	83.756966      	83.592155      	84.12849       	83.97151       	83.600105      	83.53102       	84.23661       	83.14087       	83.56612       	83.852486      	83.74757       	83.60756       	86.40284       	85.12664       	83.59468       	83.2876        	83.882774      	83.99974       	83.938675      	83.672775      	83.662056      	83.516785      	83.47211       	83.71244       	83.2738        	82.83977       	84.75535       	83.38436       	82.99429       	83.45373       	83.165695      	83.24059       	83.4257        	83.2557        	83.646515      	83.24134       	83.69635       	83.280396      	83.036255      	83.47718       	83.916954      	83.58728       	83.97697       	83.54495       	83.29588       	83.5214        	83.576515      	83.77626       	83.80185       	84.13264       	84.012215      	83.91945       	83.11201       	83.53043       	83.56692       	83.29859       	83.401375      	83.39358       	83.05783       	83.709435      	83.185555      	83.92897       	83.786354      	83.097786      	86.06878       	80.55398       	77.83886       	75.224434      	73.158585      	71.73317       	72.692825      	73.05242       	73.64942       	74.04751       	74.724525      	73.676506      	74.38954       	74.16814       	74.85495       	74.71174       	
83.59017       	83.29593       	83.79228       	83.1115        	84.10233       	83.65413       	83.41704       	83.48917       	82.931465      	83.29272       	83.66597       	82.87905       	83.292564      	83.32419       	83.58225       	83.88695       	83.31944       	83.7929        	83.52235       	84.011475      	84.155655      	83.56792       	83.50619       	83.78282       	83.748695      	84.01875       	83.22298       	83.56717       	83.655136      	83.055084      	83.278275      	83.683914      	83.09293       	83.841675      	84.17833       	83.30161       	83.00317       	83.652176      	83.20126       	82.994225      	83.514534      	83.0317        	83.40642       	83.495285      	83.61849       	83.59312       	83.51112       	83.92169       	82.95392       	83.48683       	83.41933       	83.8591        	83.686584      	83.739296      	83.21966       	82.936005      	83.730484      	83.16581       	83.89426       	83.76393       	83.96387       	83.46745       	84.206825      	83.72286       	84.06454       	83.74795       	83.542694      	83.7353        	82.94165       	83.2345        	83.343544      	83.24069       	83.10729       	83.42174       	83.19667       	83.537094      	83.649345      	83.51106       	83.74771       	83.938614      	83.38722       	83.54625       	83.50782       	83.60128       	86.74683       	82.75084       	78.08518       	75.83945       	73.096565      	72.258514      	72.481926      	72.9595        	74.13662       	75.464584      	74.08232       	72.844475      	73.578636      	75.686806      	76.31722       	76.39049       	
83.48562       	83.44028       	84.028564      	83.31691       	83.80912       	83.5457        	84.14927       	83.58718       	83.37562       	84.2249        	83.901474      	83.85682       	84.059456      	83.759895      	84.13444       	83.88616       	84.05199       	84.27532       	84.01436       	84.16564       	83.706184      	83.56104       	83.56006       	84.43718       	83.90336       	84.299194      	84.456215      	83.87023       	83.34822       	84.07165       	83.98618       	83.38477       	84.00015       	83.91907       	83.692894      	84.18229       	83.78862       	83.611694      	83.64622       	83.64291       	84.08952       	83.503426      	83.44146       	83.8858        	84.121414      	83.91586       	83.95143       	83.71344       	83.27208       	83.77523       	83.832184      	83.98832       	83.90844       	83.7225        	83.437325      	83.63656       	83.3863        	82.682846      	84.12587       	83.88609       	84.19067       	84.41533       	84.08035       	83.891235      	83.95889       	83.30381       	83.60344       	83.753075      	83.52946       	84.24956       	83.30997       	83.96616       	83.74521       	84.12979       	84.064186      	84.6541        	84.41955       	84.17557       	84.00188       	85.01147       	84.31703       	84.62391       	84.90357       	85.59539       	86.66024       	83.895744      	79.436516      	75.98652       	73.34427       	71.83702       	70.987595      	72.727165      	73.08653       	73.58212       	72.845764      	73.873         	74.11084       	74.2899        	74.352135      	73.79717       	
83.33844       	83.79037       	83.4501        	83.61222       	83.52449       	83.4877        	83.486664      	83.73414       	84.07394       	83.76568       	83.89072       	83.34834       	84.14302       	83.49553       	83.86693       	84.05817       	83.55646       	83.36008       	84.60366       	83.51697       	83.72739       	83.718956      	83.69955       	83.87644       	84.086754      	84.07483       	84.03743       	83.5984        	83.588974      	83.6845        	83.74773       	83.42297       	84.00073       	83.544785      	83.71026       	83.49753       	83.95841       	84.060905      	83.36415       	83.81528       	83.38923       	82.97074       	83.312         	83.74184       	83.39819       	84.01666       	83.616806      	83.28625       	83.318535      	83.773254      	83.12937       	83.14268       	84.13434       	83.21114       	85.19573       	82.69704       	78.97342       	76.327835      	74.26973       	74.44241       	76.275         	79.17453       	83.01371       	83.83406       	84.03931       	83.86643       	84.31819       	83.85866       	83.96994       	83.896515      	84.21724       	84.40847       	84.38749       	84.15139       	84.28291       	83.89956       	84.060715      	84.186134      	84.28533       	84.587364      	84.00183       	84.331         	84.9492        	84.89291       	84.853874      	88.42035       	80.294044      	75.40073       	73.60313       	72.61925       	71.87477       	73.08323       	73.8203        	74.4539        	73.23018       	74.32166       	74.25557       	74.22399       	74.701324      	74.56132       	
83.27013       	83.457375      	83.082436      	83.82051       	83.374214      	82.617874      	83.18161       	83.61778       	83.28747       	83.21598       	82.935585      	83.266174      	83.87393       	83.12421       	83.48471       	83.36387       	83.69924       	83.525955      	83.65878       	83.39729       	83.60697       	83.37739       	82.95452       	83.07609       	83.18384       	83.602356      	83.16441       	83.09334       	83.09873       	83.539055      	82.46427       	83.1226        	83.165504      	83.469894      	82.9741        	82.763016      	82.82066       	82.42235       	83.240616      	82.463036      	82.85559       	82.303         	82.19162       	83.066055      	82.92411       	82.25603       	83.6845        	82.82803       	82.19017       	82.56064       	83.701126      	80.67422       	78.7866        	76.08398       	74.29843       	72.69632       	71.76339       	71.36428       	69.851166      	69.81084       	71.2694        	72.303604      	78.44317       	83.33416       	83.35108       	83.206154      	83.482994      	82.776436      	83.87922       	83.52666       	83.32376       	83.46981       	84.15141       	83.56942       	84.22318       	83.371254      	84.26164       	83.77662       	83.2819        	83.92119       	83.696945      	84.01372       	84.575516      	84.45285       	84.386116      	86.51237       	82.270615      	77.89305       	75.507675      	73.07598       	72.21119       	73.22346       	73.10532       	74.0716        	74.44506       	74.73036       	74.88305       	75.13424       	74.67873       	74.59526       	
83.78867       	83.50677       	83.72619       	83.3658        	83.5895        	83.33448       	83.59192       	83.19619       	83.793205      	83.67385       	83.526375      	83.6594        	83.93796       	84.124825      	83.41096       	83.60539       	83.31668       	82.85578       	83.52982       	83.591385      	83.17779       	83.38167       	82.81037       	83.6727        	83.60496       	83.543976      	83.841545      	83.45151       	83.259544      	83.462204      	83.42361       	82.90784       	83.44137       	83.74136       	83.22101       	83.229996      	83.13244       	83.00734       	83.083145      	83.9136        	83.44687       	83.10941       	83.812805      	83.49          	84.094635      	83.53243       	85.89367       	83.91259       	78.351555      	75.17824       	73.51269       	72.49281       	71.90953       	71.180405      	70.77679       	70.6784        	71.194664      	71.99131       	70.508545      	70.7612        	71.545425      	73.33413       	76.32341       	83.87936       	83.336784      	83.29245       	83.41576       	83.60736       	83.450424      	83.30842       	83.77188       	83.56448       	83.34643       	83.11923       	84.02222       	83.52973       	83.1832        	83.72002       	83.29103       	84.19615       	83.76292       	83.80054       	83.902245      	83.85638       	84.488464      	85.83857       	84.2672        	79.08982       	75.811714      	74.39939       	72.500175      	73.262115      	73.109245      	73.80259       	74.48925       	74.43497       	74.745384      	74.70608       	74.99968       	75.017044      	
82.61348       	83.47733       	83.18652       	82.81396       	83.05638       	82.951225      	82.94568       	83.41042       	83.093605      	82.862015      	83.0333        	83.49357       	82.58175       	83.741516      	83.434944      	83.30023       	83.284744      	83.16266       	83.471924      	83.02026       	82.84461       	83.24804       	82.84599       	83.06386       	83.11198       	83.07473       	83.52068       	82.69955       	82.685356      	82.97751       	82.76343       	83.10389       	83.78056       	83.00194       	82.77503       	83.00298       	83.15839       	83.60132       	83.884705      	83.30155       	82.96761       	85.31668       	82.54196       	79.34424       	76.90684       	74.09905       	72.65229       	72.6915        	70.685455      	70.559166      	70.72323       	70.62382       	71.0173        	70.73886       	71.53625       	70.94213       	71.40581       	71.514244      	71.265625      	71.26389       	71.541336      	73.40601       	76.96157       	81.67956       	83.42391       	83.190956      	83.36306       	83.30353       	83.48167       	83.40323       	83.58911       	83.44272       	83.603935      	83.93305       	83.31923       	83.67983       	83.95473       	83.389595      	84.09013       	83.75327       	83.315704      	83.23427       	85.84526       	84.430115      	84.03899       	86.67432       	84.32048       	77.85718       	75.52782       	73.31415       	72.23734       	72.57307       	73.12796       	73.46798       	74.20406       	73.96867       	74.22801       	74.92581       	74.7855        	75.23875       	
82.93706       	83.509346      	83.556564      	83.873055      	83.33044       	83.33892       	83.331055      	83.72835       	83.38865       	83.75863       	83.039566      	84.034424      	83.65931       	83.35969       	83.3808        	83.755615      	83.16712       	83.63915       	83.51783       	83.85552       	83.520966      	83.0395        	83.11514       	83.474464      	83.06566       	83.61246       	83.36737       	82.78067       	83.140335      	83.629295      	83.45837       	82.52223       	84.2701        	83.85142       	83.12002       	82.68028       	82.680725      	86.62169       	82.38088       	79.36869       	76.14699       	73.60345       	72.38407       	71.68217       	70.653854      	70.14845       	70.59591       	70.651726      	71.02496       	71.032616      	71.08684       	71.57808       	72.0789        	71.73165       	71.78772       	72.59497       	71.30941       	71.63419       	71.37823       	70.74939       	71.337006      	72.13995       	76.11304       	81.12222       	84.5229        	83.43105       	83.297325      	83.33656       	83.16974       	83.847565      	83.69493       	83.33641       	83.91744       	84.080795      	84.09449       	84.17821       	83.55558       	83.76751       	83.68391       	84.44109       	83.82746       	84.17645       	84.17128       	84.225         	85.36986       	85.78488       	87.58443       	79.75458       	77.192184      	74.10941       	73.05322       	72.212906      	72.598076      	74.05817       	73.53421       	73.785904      	74.50848       	74.97054       	75.34878       	74.496346      	
81.790436      	83.92678       	83.773346      	83.81713       	83.556946      	83.64299       	83.8969        	83.642296      	83.56977       	82.90628       	82.51168       	83.35373       	82.632454      	82.80226       	82.662796      	83.00327       	83.3168        	82.70044       	82.95599       	82.867516      	82.52039       	84.002884      	82.85106       	82.86237       	82.61002       	83.04535       	82.77631       	82.26328       	81.82965       	82.01128       	82.48709       	82.0326        	81.027374      	85.46748       	79.8835        	76.56807       	74.979614      	73.51701       	72.08099       	70.7256        	70.574875      	70.86671       	70.96186       	70.47804       	71.133835      	71.26595       	71.125         	71.31678       	71.47547       	71.76183       	71.721245      	72.54859       	72.10948       	72.07825       	72.49933       	72.14202       	72.57097       	72.20537       	72.15124       	71.25121       	71.3917        	72.24751       	75.34106       	80.4536        	84.46456       	83.71678       	84.11191       	83.957954      	83.965485      	84.02825       	83.54687       	84.30462       	84.11964       	84.2763        	84.00521       	84.22007       	83.85031       	83.687325      	84.43228       	84.45499       	84.29118       	84.60266       	84.5515        	84.99905       	85.26292       	85.24742       	88.3504        	81.95421       	77.543915      	74.48547       	73.758255      	72.6054        	73.30385       	73.90417       	74.704506      	74.70192       	74.99843       	75.32596       	75.57868       	75.2496        	
83.46678       	83.4533        	83.872734      	82.86965       	83.205765      	82.79157       	83.7995        	83.49546       	82.9433        	83.33743       	83.49565       	82.83657       	83.17281       	83.21449       	82.770256      	83.476814      	82.847916      	83.49479       	83.39498       	82.96038       	84.0044        	83.11179       	82.78374       	83.615074      	83.15704       	83.39966       	83.186295      	82.73918       	82.84387       	84.25138       	79.190704      	77.51409       	75.33846       	73.5826        	72.34804       	71.356255      	70.531746      	70.65331       	70.354774      	71.115906      	71.38686       	70.45217       	71.35891       	71.32261       	71.72074       	71.348564      	71.60416       	71.35539       	71.91863       	71.99739       	71.98187       	72.34499       	72.49716       	72.9133        	72.77889       	72.71241       	72.599594      	72.21972       	72.13276       	71.01821       	71.070786      	71.780754      	72.19333       	78.54369       	84.29209       	83.29165       	83.70547       	83.898026      	84.036224      	83.659424      	84.398926      	84.02823       	83.73953       	83.865814      	83.76494       	83.29614       	83.7123        	83.594505      	83.38702       	83.99479       	84.16604       	83.6347        	84.14529       	83.72307       	84.34113       	83.77988       	86.66447       	84.29326       	78.19198       	75.02873       	73.10486       	72.85466       	73.14714       	72.8672        	74.04978       	74.245636      	74.78978       	75.15365       	74.91555       	74.54258       	
83.23182       	83.51752       	83.0586        	83.09204       	83.24943       	83.200645      	83.78888       	83.416245      	83.54547       	83.12733       	82.95183       	83.89071       	83.55949       	83.9724        	83.40013       	83.539154      	83.297104      	83.44449       	83.35103       	84.06625       	83.47753       	83.40914       	83.99076       	83.80319       	84.14854       	83.93416       	86.28294       	82.55007       	75.73969       	72.92397       	71.91653       	71.47579       	70.91582       	70.487274      	70.67742       	70.807945      	71.0356        	71.77588       	71.19283       	71.652916      	71.617         	71.474495      	72.23585       	71.665405      	72.33258       	72.07781       	71.83218       	72.63234       	72.41907       	72.68148       	73.12694       	72.744125      	72.67928       	73.10582       	73.030495      	73.17824       	72.47133       	72.675125      	72.65048       	73.327705      	71.0416        	71.1842        	72.14546       	76.93542       	83.51592       	83.45318       	83.30921       	83.64812       	82.92816       	83.28611       	83.2736        	83.81105       	83.54041       	83.9572        	83.99307       	84.5511        	84.214806      	83.76481       	83.70619       	83.46289       	84.06368       	83.62067       	84.432686      	84.03293       	84.58169       	84.43258       	84.95417       	86.88768       	78.28455       	74.75151       	73.45662       	72.61087       	72.39721       	73.36443       	73.02251       	74.49377       	74.48495       	74.57168       	74.51375       	74.46845       	
83.20707       	83.6753        	83.13487       	82.82175       	83.35106       	83.37481       	82.61803       	83.19766       	83.30674       	82.85183       	83.43317       	82.64187       	83.10237       	83.312225      	82.90882       	83.25707       	83.355576      	83.04273       	82.85006       	82.741035      	82.73343       	83.54538       	83.10995       	82.99256       	83.68255       	85.92118       	78.50774       	72.71516       	69.750374      	69.95264       	69.86328       	70.52709       	70.5587        	70.777176      	70.68195       	71.1643        	71.31491       	71.267426      	71.81735       	71.32011       	72.01437       	71.75706       	71.79637       	72.25708       	72.27477       	72.66529       	72.26452       	72.54635       	72.79849       	72.42718       	72.62463       	72.53272       	72.95425       	73.423805      	73.29784       	73.14046       	73.28349       	72.56359       	72.59463       	72.018486      	69.77011       	71.117485      	72.03426       	74.70437       	80.01872       	83.32341       	81.986435      	83.5776        	83.26157       	83.33169       	83.2705        	83.60303       	83.337006      	83.546906      	83.59148       	83.38165       	82.84239       	82.75981       	84.07151       	83.86196       	83.565125      	83.74849       	84.0839        	83.61129       	84.4424        	85.22432       	84.593925      	87.651634      	80.46797       	75.8627        	73.81031       	72.538635      	71.364784      	72.23259       	72.741936      	73.108055      	73.9291        	74.00298       	73.92515       	73.56374       	
83.16454       	82.95278       	82.8759        	82.9074        	82.64326       	82.714386      	82.55421       	83.23988       	83.92259       	82.569916      	82.85936       	82.856094      	82.80602       	82.34462       	82.892876      	82.6389        	82.88926       	83.8156        	82.6375        	83.62414       	83.022514      	83.478096      	83.32872       	82.906815      	86.457596      	79.67911       	73.11643       	70.62079       	69.79212       	70.15831       	70.1702        	70.83505       	70.69525       	71.58051       	71.18108       	71.401535      	71.65308       	71.71803       	71.94815       	71.53339       	72.42153       	72.61306       	72.746994      	72.5394        	72.83361       	72.20712       	72.65533       	72.62883       	72.43497       	72.58472       	73.2844        	72.93619       	72.58814       	72.99577       	72.896164      	72.73846       	74.27527       	72.09619       	72.31991       	71.93302       	70.94569       	70.70651       	70.96291       	73.17482       	79.414764      	82.72401       	82.583084      	83.02975       	82.25979       	82.93655       	81.95165       	83.255196      	82.52977       	82.59733       	83.134865      	82.73513       	82.96399       	82.49249       	83.36832       	82.80319       	82.40798       	82.374535      	83.095         	82.678215      	82.90123       	83.12283       	82.32371       	85.235054      	82.660706      	77.44207       	73.82012       	72.62393       	71.45876       	72.62548       	73.10469       	73.83856       	73.82976       	74.1087        	75.322235      	75.06402       	
83.81408       	84.66274       	84.19973       	84.18973       	84.19322       	83.79337       	84.307755      	84.73024       	83.5359        	83.56193       	84.29034       	83.755035      	85.35672       	83.55329       	84.04742       	84.51331       	84.30719       	84.388794      	84.25993       	84.69998       	84.81119       	85.12838       	85.26206       	84.789566      	84.738174      	77.96974       	74.02854       	72.49172       	70.95816       	71.14363       	71.82847       	72.35833       	72.05602       	72.6031        	73.30893       	72.97962       	73.31741       	73.39195       	73.739525      	73.3343        	73.751595      	73.76217       	73.76574       	73.300835      	74.04351       	74.02563       	74.412865      	73.746765      	74.07494       	74.25099       	74.28755       	74.19093       	73.97043       	74.12848       	74.01895       	74.18758       	74.003525      	73.62884       	73.51558       	72.8584        	72.3207        	72.505226      	71.90844       	72.61209       	78.36676       	84.09742       	83.944824      	83.67779       	84.650635      	83.96029       	83.53414       	84.275795      	83.77341       	84.112816      	84.18972       	84.177795      	84.154564      	84.04502       	84.44396       	84.26385       	83.97064       	83.95895       	84.58813       	84.72217       	83.973915      	84.90616       	84.662254      	88.41175       	83.81886       	77.55121       	75.624115      	74.82767       	73.1386        	72.90071       	73.72291       	74.19191       	74.368385      	74.554474      	74.50533       	74.71139       	
83.98827       	84.00954       	83.68694       	83.59596       	83.66097       	84.0982        	83.72791       	84.2697        	83.48136       	83.01016       	83.95055       	83.99277       	83.95304       	83.977455      	83.507164      	83.924706      	83.403694      	83.979256      	83.56393       	83.364586      	83.93841       	83.89627       	84.74245       	84.83311       	85.62897       	79.268875      	74.986626      	73.85976       	71.401184      	71.414764      	72.16259       	71.99122       	72.90607       	72.93894       	72.87702       	72.8025        	73.00979       	73.09009       	72.85596       	72.876076      	73.87766       	72.76762       	73.82519       	72.80649       	73.526855      	73.593         	73.35936       	73.98262       	73.652626      	73.548904      	73.699646      	73.38926       	73.36844       	73.91317       	73.07231       	73.70863       	73.56235       	72.93219       	73.2039        	72.39943       	72.41871       	71.32702       	71.413536      	72.14189       	73.81654       	83.24113       	83.863655      	84.24465       	84.21055       	83.26838       	83.34913       	84.02835       	83.87806       	83.70782       	83.453514      	83.65892       	83.35676       	83.22299       	83.665565      	83.61639       	84.16916       	83.8121        	83.673256      	84.23216       	83.90248       	83.67037       	84.03911       	86.07718       	87.78011       	81.0927        	76.469284      	73.42991       	72.363884      	72.52794       	72.9298        	74.69815       	75.11516       	73.907234      	74.30722       	73.88051       	
83.61816       	84.10671       	83.55836       	83.49438       	83.47618       	83.73356       	83.95354       	83.15967       	83.551895      	83.773026      	83.028046      	83.58079       	83.442406      	83.57496       	83.795845      	82.90304       	83.53051       	83.85604       	83.18101       	83.645515      	83.67364       	83.98974       	83.39894       	83.86863       	87.75265       	79.82213       	76.853714      	74.41859       	71.709274      	71.83854       	72.26966       	72.359474      	73.539955      	73.944855      	74.12248       	73.143364      	74.29704       	73.9823        	74.13527       	74.532555      	74.03134       	73.95922       	74.20211       	74.53325       	74.16122       	73.72295       	74.260605      	74.34637       	74.52125       	74.153244      	74.59306       	74.34688       	74.514336      	74.3896        	74.809494      	74.4223        	73.83339       	73.66769       	73.76676       	73.402466      	72.8766        	72.78201       	71.488716      	72.553276      	74.9193        	80.59075       	84.52231       	84.4083        	84.42501       	84.32946       	84.23308       	84.14396       	83.83075       	84.575745      	84.82851       	84.3109        	84.421585      	84.64434       	84.52135       	85.26357       	84.54242       	84.76924       	85.38654       	85.26789       	85.77853       	85.572365      	85.65237       	86.42276       	87.452644      	79.44963       	75.46709       	74.75903       	73.68448       	72.2835        	73.29417       	76.63294       	73.997856      	73.50273       	73.99982       	74.382286      	
83.58552       	83.86607       	83.31602       	83.753944      	83.496124      	83.27393       	82.97401       	83.13167       	83.70131       	83.5502        	83.6714        	84.13448       	83.79465       	83.245255      	83.78532       	83.577194      	83.53523       	83.17931       	83.87598       	83.80225       	84.12341       	83.9718        	84.06337       	84.66818       	87.45069       	81.30752       	76.95308       	75.4378        	73.0909        	71.54395       	72.48918       	72.23134       	73.20625       	73.71682       	73.30862       	73.525314      	73.239426      	73.87666       	73.24056       	73.87412       	73.67524       	73.64931       	73.330185      	73.019135      	73.760864      	73.74069       	73.90675       	73.76671       	73.9895        	73.833466      	73.16237       	73.74987       	73.59877       	73.63918       	73.78099       	73.51315       	73.01592       	74.01938       	73.51009       	73.42684       	72.77872       	71.988335      	72.16178       	72.49661       	74.705414      	78.678795      	83.62543       	84.33698       	83.62382       	83.93175       	83.7811        	84.1346        	83.990715      	84.4358        	84.09902       	84.590416      	84.33948       	84.629         	84.55898       	84.70138       	84.49254       	85.21075       	84.635056      	84.70673       	85.24656       	85.71977       	85.73796       	85.840416      	87.991875      	82.2062        	77.60259       	74.39428       	73.70567       	72.110405      	73.27347       	74.561676      	74.78333       	77.25418       	77.17237       	74.682274      	
85.41414       	83.62331       	83.78738       	83.67043       	83.31552       	83.79774       	83.371445      	83.42947       	83.556564      	84.30401       	83.497765      	83.70266       	83.12186       	83.45038       	83.42921       	83.54739       	83.729515      	83.33424       	83.50021       	83.86709       	83.39557       	83.52025       	84.578064      	84.34423       	86.255905      	83.77271       	77.98648       	74.70668       	73.27126       	72.39096       	72.18731       	73.20093       	72.97802       	73.6364        	73.52518       	74.17448       	74.34374       	72.83285       	74.02352       	73.68935       	74.16602       	74.35462       	73.85953       	73.98752       	74.26916       	74.21546       	74.33291       	74.53084       	73.86311       	74.11049       	74.06752       	74.416534      	74.783714      	74.56739       	73.849846      	74.74753       	74.8595        	75.4185        	72.70294       	72.490875      	72.805565      	73.23447       	71.9462        	72.3785        	73.737976      	78.25905       	83.86051       	83.92969       	83.88998       	84.2301        	84.42827       	85.09541       	83.5186        	84.23291       	84.33234       	84.3481        	84.10102       	84.30846       	84.02395       	84.46406       	83.91359       	83.96085       	84.9784        	84.41463       	84.992676      	84.687645      	85.06416       	85.338585      	87.310745      	83.37365       	77.71009       	75.4552        	75.693054      	72.76593       	72.82386       	73.12752       	74.16763       	74.28838       	73.80843       	74.109795      	
73.57704       	77.22994       	83.33617       	83.61354       	83.47783       	83.87898       	83.19174       	84.09743       	83.30096       	83.974         	83.84778       	83.44819       	83.82842       	84.03841       	85.378296      	84.60248       	83.37988       	83.17616       	84.18836       	83.770706      	83.87327       	84.47121       	84.18586       	84.36163       	84.54316       	87.237656      	78.51039       	75.08254       	73.00363       	72.25098       	71.95109       	72.741516      	72.91525       	73.59766       	74.80823       	74.779305      	73.61002       	72.730896      	74.77933       	74.174515      	74.73272       	74.48324       	74.871994      	74.32929       	74.58792       	74.46627       	73.89515       	74.46706       	74.841705      	74.99135       	74.32428       	74.78815       	74.80039       	74.51026       	75.16887       	75.7439        	76.5621        	74.42695       	71.67381       	73.24941       	73.88081       	72.98686       	71.9586        	71.67638       	73.82766       	77.53556       	83.05183       	83.42811       	83.07763       	83.44071       	83.976746      	83.81758       	83.84998       	83.810265      	83.3576        	83.81449       	83.83954       	83.577965      	83.824         	84.179344      	84.18515       	83.24867       	83.9998        	83.72377       	83.681625      	83.41845       	83.17718       	83.95206       	84.19809       	86.777016      	79.897606      	77.043175      	75.06904       	73.27074       	72.859505      	73.915695      	74.05908       	75.580475      	75.03046       	74.6381        	
70.39017       	71.81912       	77.6549        	82.106064      	83.03941       	83.71804       	83.76856       	83.29008       	83.35544       	83.50763       	83.54882       	83.48102       	83.803535      	83.27957       	84.14002       	83.96924       	83.2422        	83.97015       	83.506386      	84.12774       	83.25096       	83.938805      	84.27612       	84.69785       	84.676315      	87.23946       	81.28158       	75.96689       	73.95208       	72.6421        	72.43728       	72.067604      	73.02779       	74.10764       	74.1142        	73.57601       	73.960335      	74.06817       	74.369774      	73.78295       	74.18918       	74.02464       	73.79098       	73.823906      	74.00508       	74.13634       	74.03244       	74.31113       	73.740364      	74.27178       	73.93752       	74.79114       	74.43562       	74.58018       	74.536995      	73.97683       	73.862755      	73.35524       	73.60203       	73.1028        	73.03631       	72.34588       	71.84918       	70.97788       	73.62922       	76.49571       	80.344154      	84.32274       	84.05044       	83.7232        	83.8714        	83.306145      	84.235214      	83.62108       	83.66278       	83.74638       	83.7834        	83.9205        	83.65698       	83.69782       	83.853424      	83.5522        	83.185646      	83.491135      	84.17165       	83.71726       	84.42176       	83.83968       	83.1347        	87.04609       	80.92643       	75.745804      	73.38296       	72.4115        	72.6801        	73.65128       	75.11688       	76.980774      	76.3737        	74.11414       	
69.95175       	72.32262       	75.34913       	82.222336      	82.3364        	83.753265      	84.148445      	83.90585       	83.32074       	83.29374       	83.69226       	83.41276       	83.476166      	84.19851       	83.9905        	83.80425       	83.639626      	83.20964       	83.93029       	84.41944       	84.00125       	84.20149       	84.271935      	85.10438       	85.26321       	87.62429       	84.35893       	78.283264      	75.60134       	74.161545      	72.09564       	72.5508        	73.4466        	72.27547       	73.694         	73.74052       	73.88811       	73.950806      	74.1881        	73.92322       	73.4852        	74.11946       	73.77289       	73.99249       	73.982635      	73.6931        	73.88692       	74.124565      	73.70047       	73.425896      	74.06687       	74.27513       	73.79082       	73.307724      	73.149796      	73.70805       	73.51076       	73.4224        	73.068146      	72.92355       	72.75291       	71.65596       	71.40561       	70.788734      	71.37702       	72.222786      	79.09189       	84.580284      	84.19033       	83.63837       	83.73121       	84.057365      	84.37736       	83.7481        	84.14434       	83.91805       	84.82387       	84.070244      	84.26413       	83.95398       	84.39187       	84.29498       	83.84511       	84.18964       	84.36158       	84.007935      	84.32247       	84.04377       	83.83176       	88.390144      	79.88172       	76.0676        	74.41749       	73.903244      	72.87821       	73.52193       	75.09702       	77.34821       	76.43636       	74.75124       	
71.62673       	71.8893        	74.49599       	82.33313       	83.52362       	82.810936      	82.620056      	83.37119       	83.15105       	83.82165       	83.32936       	84.11442       	83.450874      	83.139366      	83.19289       	83.24006       	83.755325      	82.538895      	84.262344      	83.74561       	82.86799       	83.817856      	83.42851       	83.76877       	83.671074      	84.71677       	87.975586      	81.781815      	76.395996      	73.05575       	74.80228       	73.51058       	72.31216       	73.49985       	74.17482       	73.91446       	74.266884      	73.74129       	74.39671       	73.96499       	74.22783       	74.11456       	73.95389       	74.02343       	73.48114       	74.171646      	74.85909       	73.40626       	74.4259        	74.141655      	74.03223       	74.01109       	74.089775      	73.84762       	73.792946      	73.96198       	74.08287       	73.39324       	74.34667       	74.04383       	72.98644       	73.72612       	71.7937        	70.89022       	71.28754       	71.72897       	77.81046       	84.06621       	84.07174       	84.35259       	84.07361       	84.27203       	84.045135      	84.32119       	84.13888       	84.260765      	84.65539       	84.21326       	84.43002       	84.231834      	84.10778       	83.927246      	84.2848        	84.02067       	84.12322       	84.34407       	84.80648       	85.32579       	85.17391       	87.65264       	84.29798       	78.031494      	75.1311        	73.30204       	72.57234       	72.69855       	73.86681       	74.14249       	74.48561       	74.54347       	
71.16408       	71.70097       	74.16126       	81.1755        	83.56349       	83.81429       	83.60153       	83.20441       	83.76406       	83.70018       	83.70322       	83.702675      	83.5987        	84.01952       	84.143616      	85.00018       	85.15683       	82.9835        	83.03693       	84.07688       	84.12295       	83.15594       	83.639854      	84.41854       	83.5424        	83.79987       	89.2           	80.57576       	76.29018       	73.720474      	72.53422       	72.96992       	72.47361       	73.159996      	74.13652       	73.90919       	74.23184       	74.21586       	74.21817       	74.52825       	73.49681       	73.95148       	74.162415      	73.87814       	73.77567       	73.904564      	73.57508       	74.21788       	74.12859       	73.43671       	73.95046       	73.79522       	73.70595       	74.66038       	73.777695      	73.94464       	74.401566      	74.18609       	73.39129       	73.40043       	73.62045       	73.25991       	71.78348       	71.50391       	71.32771       	71.73496       	76.0263        	81.5742        	84.650955      	84.536545      	84.18741       	83.6487        	83.8764        	83.76987       	84.20182       	83.64603       	84.05914       	84.017746      	83.92683       	83.884964      	83.388855      	82.97293       	84.07451       	84.214676      	84.26134       	83.91526       	84.43852       	84.638664      	84.25566       	85.903275      	86.29199       	78.19891       	75.32666       	74.46073       	72.9629        	72.9824        	73.83791       	74.02377       	74.73293       	74.90951       	
71.55234       	71.770004      	73.78743       	79.725006      	84.342445      	83.59147       	83.43474       	83.46938       	84.04109       	83.98671       	83.31278       	83.51474       	83.657         	84.36465       	84.39738       	82.90679       	85.133385      	84.07184       	83.68761       	84.63063       	84.066826      	83.812294      	84.437874      	85.49555       	84.59836       	85.867         	87.38953       	83.6128        	79.30497       	75.737625      	72.97687       	72.39709       	72.69238       	73.020454      	73.44651       	73.61247       	74.15823       	73.94546       	73.880646      	74.05003       	74.19341       	73.82508       	73.98507       	74.12954       	72.95951       	73.493324      	73.651276      	73.671585      	73.69692       	73.613464      	73.62247       	74.07657       	73.79102       	74.02757       	74.09046       	73.58076       	73.821754      	74.188095      	73.58514       	73.07306       	73.32489       	72.74824       	72.03578       	71.69212       	71.71049       	72.6482        	74.83757       	80.54711       	83.756485      	83.604416      	83.52805       	83.59168       	83.60346       	83.59789       	83.629074      	83.59526       	83.978714      	83.80596       	83.84573       	83.434235      	84.287636      	83.55465       	84.201775      	83.61831       	83.99975       	83.88188       	84.366714      	84.347824      	83.66503       	83.84864       	87.29759       	80.71872       	77.24597       	74.7504        	73.03077       	73.0498        	74.38364       	74.02069       	74.89033       	74.58259       	
71.57003       	72.50844       	72.89828       	78.837975      	84.59378       	83.1984        	83.51026       	82.20749       	83.215614      	83.27705       	83.06723       	82.89363       	85.11085       	85.193306      	82.90182       	81.60327       	84.10573       	84.10027       	83.6107        	84.33567       	83.763535      	84.42998       	84.39977       	84.69117       	84.59046       	85.10006       	85.87941       	86.138985      	78.92975       	75.28004       	72.809166      	72.50612       	72.37212       	73.31507       	73.59805       	74.798485      	73.59022       	73.306404      	74.15539       	74.655655      	73.89325       	73.91755       	74.232834      	73.87949       	73.46293       	73.52743       	73.90838       	73.67305       	73.71686       	73.604355      	73.38989       	73.87297       	74.07502       	73.837006      	73.95691       	74.129265      	73.4628        	73.870415      	73.813675      	73.35461       	73.6915        	72.934166      	72.43694       	71.95916       	71.42001       	71.93714       	74.621735      	80.55367       	83.57373       	84.12469       	83.3122        	83.58282       	83.733376      	83.61983       	83.17562       	83.68522       	83.33682       	83.62184       	83.55259       	84.049576      	84.16986       	83.9335        	83.79263       	83.73725       	84.07843       	84.21872       	84.027245      	85.15571       	85.03265       	85.826065      	88.53881       	82.47482       	78.033195      	75.08929       	73.4501        	72.51398       	73.383995      	74.14546       	73.98657       	73.522125      	
71.36077       	71.53072       	71.99798       	75.82976       	82.68552       	83.4195        	83.48323       	82.380615      	84.14376       	83.44373       	83.766464      	82.97929       	83.36007       	83.140205      	84.10067       	82.43485       	82.967285      	84.006065      	83.94069       	83.180244      	84.169365      	83.55274       	83.89373       	84.33751       	84.60325       	85.587776      	86.71706       	86.50945       	79.52924       	76.62658       	72.97555       	71.329216      	72.715836      	73.20093       	75.13011       	73.5694        	72.94089       	75.43677       	74.58661       	72.59771       	75.46459       	74.33895       	73.33818       	73.18538       	72.872826      	73.30199       	71.70325       	73.663536      	73.88723       	74.02692       	73.924446      	73.7135        	73.49959       	74.08262       	74.57753       	73.852745      	73.495674      	74.26914       	73.90387       	73.53352       	73.585556      	73.90804       	73.562775      	71.87832       	72.16458       	71.90891       	73.04389       	78.71561       	84.012         	84.216606      	83.535736      	83.65216       	84.03021       	83.8332        	83.720184      	84.67297       	83.78684       	84.05045       	84.31468       	84.46638       	83.81507       	84.32196       	84.34576       	84.780914      	84.76415       	84.70439       	84.556015      	85.05733       	85.287346      	85.28969       	87.63994       	83.49136       	78.06377       	74.83568       	74.04353       	72.92538       	72.61517       	73.12811       	73.38293       	73.20811       	
70.7613        	71.34294       	71.82563       	74.39819       	81.6866        	82.771866      	82.86652       	83.31514       	83.37938       	83.482         	83.13429       	83.72132       	82.63092       	83.691666      	82.38886       	83.67951       	83.54241       	84.43952       	82.92737       	82.50958       	83.68324       	83.66293       	84.13712       	84.3925        	82.79061       	84.31519       	83.6328        	87.62123       	78.040306      	74.8218        	72.47898       	71.32105       	71.790436      	72.62968       	72.33186       	73.12989       	73.29875       	73.02078       	73.70473       	73.113434      	73.37934       	73.51368       	73.42003       	73.45166       	73.40244       	73.062965      	74.11686       	72.901         	71.652214      	73.399536      	73.53323       	73.4583        	73.15648       	73.574326      	73.19165       	73.625336      	73.73418       	72.78144       	73.555756      	73.31256       	72.80232       	72.46793       	72.73244       	71.80098       	70.75963       	70.749306      	71.95536       	75.41817       	82.569984      	83.17525       	82.898766      	83.65165       	83.39277       	83.099655      	83.22191       	82.62302       	82.955185      	83.24411       	83.10063       	83.34779       	83.3722        	83.48395       	83.60046       	83.741035      	83.259445      	84.013885      	83.39839       	83.254005      	83.08681       	83.397964      	84.614235      	84.40627       	77.7031        	75.59494       	75.220215      	74.80314       	73.95357       	73.99845       	74.5962        	75.2346        	
72.23643       	72.999725      	74.97015       	74.07077       	79.97437       	83.72786       	83.49026       	83.21758       	83.6831        	83.76817       	82.97656       	83.31438       	83.32721       	83.08407       	84.1022        	83.976295      	83.03147       	83.89218       	81.94195       	82.44602       	83.782555      	82.90254       	84.05712       	84.35021       	81.98363       	84.92668       	83.28985       	88.02828       	81.111565      	77.592064      	75.00433       	72.72399       	72.770615      	72.831955      	72.20464       	73.83811       	73.70608       	73.93201       	74.283966      	74.22184       	73.56321       	74.220055      	73.85264       	74.165955      	73.37511       	75.21547       	73.625885      	71.5017        	70.32222       	71.880455      	74.32799       	74.110954      	73.315384      	74.36836       	74.18458       	73.94684       	73.93869       	74.247795      	73.40734       	73.42006       	73.6442        	73.03199       	73.71627       	71.900566      	70.805595      	71.24583       	71.26116       	72.90062       	81.65876       	84.22298       	83.82847       	83.83557       	84.01576       	83.76599       	83.84223       	84.0267        	84.67137       	83.92705       	83.883865      	84.412704      	84.263306      	83.49396       	84.695564      	84.26558       	84.933556      	84.28601       	84.55734       	85.04392       	84.92226       	85.25525       	86.124016      	87.19464       	82.18495       	81.4097        	80.030205      	77.141304      	74.69339       	75.57509       	76.803345      	75.081345      	
72.73148       	72.35951       	73.29984       	75.06865       	78.35758       	83.944664      	83.56577       	83.09281       	83.22504       	83.012596      	82.70302       	82.40627       	82.70974       	83.959015      	85.397224      	83.31205       	82.04467       	84.00042       	83.98505       	84.253654      	83.70019       	83.88168       	83.28729       	84.32415       	82.93982       	84.833626      	84.03456       	87.631325      	85.92942       	77.08121       	73.31766       	75.240486      	73.02386       	71.977165      	72.860634      	73.62806       	74.50109       	74.42078       	74.010666      	74.178024      	73.91339       	74.182465      	73.61357       	74.49564       	74.2683        	74.70718       	73.78308       	71.53916       	69.48771       	73.569786      	73.91585       	74.00835       	74.512764      	74.16855       	73.99555       	73.989944      	74.264046      	73.91997       	74.27054       	73.979294      	73.7973        	73.693855      	73.332794      	72.83197       	72.2271        	71.17521       	71.43534       	72.9215        	79.43074       	84.47227       	84.75719       	84.25197       	84.56151       	84.23669       	84.46748       	84.965935      	84.07405       	84.68203       	84.14874       	84.51124       	84.33935       	84.08463       	84.57546       	84.35268       	84.736336      	85.88976       	85.62512       	85.77034       	85.78715       	86.43007       	85.997444      	87.6516        	86.778755      	85.17308       	81.02953       	79.1663        	78.37993       	77.46734       	78.7307        	79.67341       	
73.027405      	71.98751       	72.11822       	73.2736        	76.442604      	83.171394      	84.55747       	83.24121       	83.33297       	83.56935       	83.48193       	83.9196        	83.35408       	84.699394      	83.3947        	83.44507       	83.11864       	82.94462       	84.04557       	83.48849       	83.77293       	83.51444       	83.25742       	83.38967       	83.39689       	84.18358       	84.337204      	85.17062       	87.658676      	78.2682        	75.13289       	72.98291       	73.02342       	75.63377       	73.770935      	72.727104      	73.8922        	74.254616      	73.41871       	74.0591        	73.887375      	73.98317       	74.50279       	74.535324      	74.09271       	73.90219       	74.34037       	73.788826      	73.99414       	73.7697        	73.826775      	74.447075      	74.382034      	74.335686      	74.10967       	74.2549        	73.903244      	74.13118       	74.37551       	74.1312        	73.86763       	74.23974       	73.36344       	74.76748       	72.35323       	72.99421       	73.19941       	73.082306      	78.43019       	84.25849       	84.047806      	83.86704       	84.11425       	84.31863       	83.79984       	83.917145      	83.6947        	84.0069        	84.792076      	84.45929       	84.3326        	84.04136       	85.14049       	84.221436      	86.44901       	85.6581        	83.53106       	85.003654      	85.53353       	85.697044      	86.39462       	86.46213       	87.499146      	87.85078       	85.1159        	81.279625      	82.15578       	81.66911       	82.70117       	84.875015      	
72.13367       	71.089386      	71.728424      	72.02706       	74.33304       	81.41372       	83.82636       	83.25774       	83.9207        	83.10288       	83.27766       	83.57652       	83.272194      	83.25851       	83.12664       	83.41506       	83.52413       	83.51999       	83.58388       	83.3344        	83.86339       	83.37647       	83.12683       	84.21955       	83.7486        	83.31722       	83.56335       	83.538826      	88.12598       	80.55008       	76.22296       	73.94867       	72.73196       	72.43576       	73.108345      	72.663704      	73.41884       	74.07651       	73.929146      	74.07791       	73.93222       	73.89706       	74.52403       	73.57551       	73.076744      	73.80893       	73.92888       	74.19871       	73.93616       	73.87751       	73.73824       	74.181755      	74.039925      	74.28399       	74.35123       	73.89944       	73.57789       	73.911804      	73.48319       	73.25864       	73.61622       	72.96288       	73.00866       	72.93607       	71.86025       	72.399414      	71.70961       	72.66305       	76.40542       	82.49879       	83.48206       	84.254875      	83.636086      	83.4495        	83.35596       	83.85322       	84.09211       	84.61067       	83.260796      	83.7204        	83.52988       	84.04689       	83.81746       	83.618324      	83.57323       	83.1664        	83.70233       	83.418304      	83.55538       	83.7958        	84.41499       	83.93535       	84.071846      	85.110886      	84.81759       	84.69528       	85.037285      	85.86083       	84.59131       	83.984436      	
72.88066       	72.440674      	72.03066       	72.046234      	72.97561       	77.38832       	84.32          	83.736465      	84.17728       	83.964035      	83.80515       	83.95957       	84.1218        	83.96369       	83.814575      	83.38049       	83.95655       	84.11951       	84.101494      	83.82758       	83.47483       	84.15662       	83.99867       	83.70659       	84.311264      	84.67829       	84.73897       	84.756065      	87.54382       	83.64971       	78.64973       	75.12748       	73.70837       	72.64273       	72.71353       	73.48013       	73.24184       	73.655396      	73.61658       	73.83776       	74.3267        	73.726494      	74.26006       	73.34635       	73.23978       	74.1271        	73.812195      	73.767         	73.983         	74.00241       	74.14126       	73.9251        	73.56514       	73.950935      	74.126724      	73.96542       	74.16566       	73.80751       	73.38158       	73.891655      	73.487         	73.31028       	72.97653       	72.577065      	73.28347       	71.58102       	71.51466       	71.73321       	74.19775       	81.06858       	83.51638       	83.5384        	83.44906       	82.69854       	83.38553       	83.915016      	83.62661       	83.45107       	84.29139       	83.86351       	83.428604      	84.51542       	84.4701        	84.00125       	84.39649       	84.76373       	84.03986       	84.31205       	84.046906      	84.772865      	84.09494       	84.54307       	85.321144      	85.09646       	85.43377       	84.993515      	84.74718       	85.04822       	84.3291        	84.59428       	
73.10663       	72.187065      	71.32848       	71.62467       	72.17482       	78.17297       	83.336266      	84.32636       	83.214516      	83.819954      	83.59481       	83.81775       	84.07166       	83.259605      	83.695366      	83.7292        	83.898346      	83.13901       	83.25959       	83.10515       	82.97664       	82.834114      	83.96502       	83.16802       	83.713936      	84.04154       	83.8042        	84.25463       	85.7632        	86.02895       	78.36442       	74.8772        	72.49996       	72.345665      	72.538246      	73.239         	73.102905      	73.874016      	73.40818       	74.472984      	74.35171       	74.33721       	73.900734      	73.92835       	74.21594       	74.35986       	73.76836       	73.857605      	73.94218       	74.015045      	73.75108       	73.460045      	74.61425       	73.78472       	74.19671       	74.12831       	73.57005       	74.119576      	73.71942       	73.71672       	73.55787       	73.22847       	72.90532       	72.4512        	72.70313       	71.63558       	70.753395      	71.437805      	71.88175       	79.57435       	83.21715       	83.575035      	84.47597       	83.83629       	83.974724      	83.93618       	83.957405      	84.13059       	84.01088       	83.77824       	84.00307       	84.02736       	83.95369       	84.09075       	84.25217       	83.70627       	83.73207       	84.26944       	84.0692        	84.73194       	84.62057       	84.16253       	84.39995       	85.04298       	84.88212       	84.671104      	85.47314       	84.194214      	83.800446      	83.70763       	
73.47139       	73.0652        	72.72005       	71.96983       	72.68576       	75.91451       	80.87972       	83.72351       	82.706566      	83.32962       	83.33859       	83.45587       	83.32412       	83.72224       	83.42682       	83.5582        	83.08424       	83.7628        	83.51799       	83.64238       	83.87757       	83.42688       	83.881355      	84.0738        	83.96611       	83.66208       	84.61845       	84.3867        	86.57061       	86.218956      	78.91532       	76.694115      	74.609764      	72.39505       	72.30977       	72.80637       	73.3297        	73.77906       	73.890884      	73.68828       	74.144         	73.95267       	73.69468       	73.947495      	73.937675      	73.661736      	73.656944      	74.1786        	73.970085      	74.38378       	73.8024        	74.11578       	73.852135      	74.2704        	73.69293       	74.212135      	74.112785      	73.44586       	73.72915       	73.876656      	73.07156       	72.740425      	73.02161       	74.16162       	72.79144       	72.8091        	72.52916       	71.50815       	72.634705      	75.83989       	82.96135       	84.80068       	83.79064       	83.93535       	84.05808       	83.52349       	83.77224       	84.26445       	83.96417       	84.71287       	84.03014       	84.416176      	84.126595      	83.92628       	84.94793       	83.81385       	84.5304        	84.42655       	83.79989       	86.11207       	84.22829       	82.79046       	84.32477       	84.93448       	85.0116        	85.01359       	85.01216       	84.68432       	84.56418       	84.4929        	
72.681885      	72.339005      	71.8075        	71.62915       	73.13468       	75.26849       	78.572815      	84.79103       	84.2999        	84.02878       	83.56829       	83.48877       	83.948616      	83.83412       	83.47663       	84.35811       	83.73126       	83.4926        	83.54084       	84.00212       	83.804504      	83.96228       	84.09443       	84.199936      	84.20842       	83.940735      	84.00835       	84.345985      	85.08521       	87.113045      	80.09483       	77.092354      	74.50201       	73.75685       	72.063896      	73.066315      	73.45278       	73.13498       	74.27866       	74.36602       	74.03313       	74.195656      	74.3847        	74.48619       	73.75162       	74.11626       	74.348854      	74.21478       	74.085594      	73.92981       	73.81428       	73.989586      	73.9507        	73.90194       	74.50489       	73.67531       	74.48506       	73.62801       	73.08229       	73.49765       	73.31428       	72.953125      	73.332436      	73.72187       	74.30302       	75.80108       	74.36391       	73.17332       	72.61976       	76.34181       	80.65304       	83.892876      	83.98606       	84.57471       	84.032906      	83.971375      	83.94561       	84.151306      	83.96487       	84.69985       	83.56415       	84.67653       	83.73803       	84.642166      	84.19769       	84.82296       	84.54969       	83.908905      	87.41145       	85.18027       	82.44913       	81.391235      	81.64515       	84.82211       	84.530975      	84.47966       	84.622025      	84.085205      	84.04468       	84.11818       	
73.06443       	72.14432       	71.5239        	70.942696      	71.83892       	72.43606       	78.16048       	83.33213       	83.07616       	83.8234        	83.31169       	83.99432       	83.58419       	83.41327       	83.487656      	83.95724       	83.693825      	83.75138       	83.640495      	84.24224       	84.06029       	83.525566      	84.01444       	84.09943       	83.16328       	84.139175      	84.34453       	83.87804       	83.48943       	87.56728       	81.7188        	77.86975       	74.51964       	72.7669        	72.163895      	72.83221       	73.080986      	74.58651       	73.84958       	74.009674      	74.27092       	74.5049        	74.379845      	74.06203       	74.35763       	74.733925      	74.08033       	74.535416      	74.287506      	73.95744       	73.867424      	74.168594      	74.67745       	74.25236       	74.163666      	74.566376      	75.07371       	74.954346      	74.919945      	73.931076      	75.13351       	74.278015      	76.82718       	74.97913       	75.95369       	77.75406       	77.104294      	77.260635      	77.83001       	79.31655       	82.264656      	84.064735      	83.79488       	83.682526      	84.20841       	84.12496       	84.35842       	83.97494       	84.18241       	84.363         	84.04165       	84.06194       	84.052864      	84.26813       	84.090416      	84.33993       	84.3545        	84.28679       	84.71745       	84.67504       	84.17708       	84.66132       	84.3486        	84.259125      	84.435524      	84.72575       	84.81653       	84.91695       	84.51603       	84.066826      	
73.04731       	73.444336      	73.098885      	72.695175      	72.556175      	73.38868       	76.400246      	84.15486       	83.79789       	83.34313       	84.4495        	84.57158       	84.00181       	83.89389       	83.98659       	84.42754       	83.822845      	83.882774      	83.68727       	84.367645      	84.32309       	83.72111       	83.99951       	84.49446       	83.48729       	84.18112       	83.7389        	84.18949       	83.88324       	87.18655       	82.78066       	77.52245       	74.27329       	73.89215       	72.39592       	72.63931       	73.2033        	73.38571       	73.67144       	74.273926      	74.0073        	74.23116       	74.220055      	73.98435       	74.28037       	73.69686       	74.13838       	73.95553       	74.07811       	74.6356        	74.7896        	73.59301       	73.905365      	74.07108       	75.23506       	73.18166       	74.86315       	75.78428       	75.88377       	75.39153       	76.73591       	77.67654       	78.46106       	77.427704      	78.9932        	79.55331       	80.61787       	81.120255      	84.03387       	85.22752       	84.83073       	84.613266      	84.651146      	84.13058       	84.90924       	84.16128       	84.9202        	83.69868       	83.93395       	84.77963       	84.43342       	84.17391       	84.48435       	84.45158       	84.15561       	84.151764      	84.4282        	83.87244       	84.12364       	85.202515      	84.53372       	84.53091       	84.57396       	84.39683       	85.19909       	85.7966        	85.60263       	85.68637       	84.35388       	83.31567       	
73.552155      	72.86751       	73.06769       	70.50159       	72.206635      	74.60338       	75.93646       	81.26789       	83.27991       	82.76509       	83.58059       	83.0119        	83.07475       	83.728775      	83.42389       	83.37093       	83.83183       	83.25651       	83.15343       	83.64092       	83.73222       	83.64866       	83.71665       	83.532845      	84.07161       	83.92294       	83.57116       	84.25838       	84.16689       	84.59957       	86.530464      	79.24233       	75.6058        	73.83835       	72.65212       	72.58771       	72.96039       	73.93603       	73.90261       	73.975845      	74.374146      	74.44607       	74.13273       	74.29579       	74.188446      	73.07729       	73.45243       	75.57827       	72.99901       	75.09464       	73.55847       	75.200775      	77.02313       	74.90244       	76.282         	75.602196      	76.50746       	76.442184      	78.85999       	77.97638       	77.58849       	79.26125       	81.56624       	85.47718       	85.50461       	84.785995      	84.27733       	84.937355      	84.84538       	83.95763       	84.19809       	84.3802        	83.934166      	84.448494      	83.971375      	83.493324      	84.103165      	83.67035       	83.17557       	84.10863       	83.95375       	83.7667        	84.481155      	83.63752       	83.441826      	83.54812       	84.09064       	83.348885      	84.12305       	84.4067        	84.61873       	84.44744       	84.93045       	84.72804       	84.97806       	84.58184       	85.29081       	84.63354       	84.44603       	85.07241       	
72.849556      	73.06958       	72.4951        	71.00314       	71.47644       	71.154655      	74.80584       	79.3601        	84.059265      	83.47993       	83.77201       	83.397316      	84.039795      	83.52768       	84.015465      	83.64603       	83.27997       	83.80145       	83.668144      	83.73347       	84.12254       	83.83353       	84.012726      	83.915955      	83.60603       	83.998085      	83.65828       	83.817986      	83.9911        	84.60238       	87.630554      	79.85993       	76.05153       	74.551125      	73.44637       	72.83749       	73.23218       	73.83482       	74.11809       	73.7205        	75.234215      	73.496826      	73.3287        	73.71834       	73.99281       	74.054         	74.21361       	74.83797       	74.74806       	76.17989       	76.97554       	77.59408       	77.56722       	75.897964      	77.81809       	78.85472       	79.34493       	80.837715      	83.39871       	81.787155      	86.31091       	85.80256       	85.33059       	84.734184      	84.51701       	84.31543       	84.98301       	84.40447       	83.89603       	83.99913       	83.81573       	84.05698       	84.19622       	83.85028       	84.07418       	84.34434       	84.178246      	84.44582       	84.43727       	84.08921       	84.30166       	84.30248       	84.35016       	84.167465      	83.95255       	83.91618       	84.45889       	84.13317       	84.58928       	84.741325      	84.69227       	84.42542       	84.92082       	84.673355      	85.37441       	85.256325      	85.70977       	86.217445      	86.12591       	85.191956      	
73.02472       	73.056175      	72.519775      	71.79367       	71.178505      	72.10159       	73.287865      	79.23278       	83.86204       	83.648094      	83.79546       	84.303024      	83.64447       	83.67051       	84.066055      	83.77598       	83.897514      	83.67675       	83.638985      	84.15379       	83.66559       	83.919395      	83.6862        	83.70501       	84.41376       	83.8944        	83.76974       	84.55152       	84.80259       	84.84735       	88.79829       	80.427         	76.802345      	75.20448       	72.818726      	71.99873       	72.45525       	72.56039       	73.64757       	72.75659       	73.370514      	75.99573       	74.8902        	75.16466       	75.11718       	76.09579       	74.73352       	75.16973       	77.07424       	76.36865       	78.89712       	79.7239        	80.32541       	80.58876       	81.66982       	83.38193       	85.38064       	85.52863       	85.25576       	85.37492       	84.59392       	84.55782       	84.15045       	84.10132       	83.392586      	84.0762        	83.51118       	83.25068       	83.26158       	84.24781       	83.8055        	83.86479       	83.39315       	83.2344        	83.956406      	83.99813       	83.51855       	83.92373       	83.44594       	83.47069       	83.39448       	83.77588       	83.8575        	83.744385      	83.65495       	83.86665       	84.04866       	84.15641       	83.73403       	84.10164       	83.941795      	84.11046       	84.38216       	84.18753       	85.04485       	84.71002       	85.187164      	85.63633       	85.60088       	84.84049       	
73.39768       	73.0849        	73.2422        	72.001465      	71.94815       	71.99891       	73.07713       	78.862686      	84.358116      	83.80415       	82.84682       	84.00628       	82.96209       	83.03056       	83.64713       	83.78952       	83.655266      	83.10801       	83.671425      	84.24026       	83.5634        	83.7805        	83.47236       	83.91562       	84.16194       	84.08767       	84.15454       	84.29363       	84.84521       	85.020386      	86.3791        	84.91267       	77.97084       	74.900955      	73.65689       	72.97061       	73.69877       	73.67036       	73.97874       	74.694435      	74.88938       	77.180466      	75.170425      	76.60446       	77.696884      	78.855415      	78.457245      	79.11581       	80.409355      	82.51855       	85.35839       	85.24669       	84.89499       	85.04018       	84.89546       	84.64894       	84.47846       	84.32732       	84.16228       	84.30846       	83.65997       	83.78201       	83.497375      	83.653496      	83.337944      	83.65691       	83.38754       	83.784874      	83.103775      	83.63509       	83.413155      	84.28561       	84.11122       	83.80035       	83.63141       	83.18907       	83.25629       	84.258675      	83.22612       	83.834656      	83.50198       	83.978584      	83.778015      	83.53648       	83.654655      	84.02528       	83.50762       	83.948296      	83.300514      	83.903076      	83.80686       	83.82236       	84.42367       	84.0966        	83.87488       	84.888115      	84.32167       	84.0191        	83.938354      	83.81455       	
73.69776       	74.175476      	73.86152       	73.302         	72.71327       	72.906845      	73.31949       	76.446884      	82.49697       	84.50363       	84.50538       	84.10009       	84.37173       	84.10451       	84.43004       	84.92344       	84.38569       	83.3868        	84.16678       	84.82687       	83.97817       	84.650795      	84.3243        	84.65199       	84.93496       	84.651405      	84.75066       	84.99725       	84.93773       	86.68046       	86.92464       	86.48359       	79.07687       	78.4879        	78.71597       	76.86026       	74.76341       	74.98971       	74.97846       	77.13523       	77.40302       	77.927315      	79.66213       	78.33324       	78.727325      	80.9697        	85.01075       	85.12744       	85.28007       	86.216194      	85.00423       	84.18394       	84.212814      	84.21355       	84.51186       	84.19468       	83.89677       	84.4194        	83.59973       	84.30816       	84.48203       	84.069084      	84.02604       	83.58852       	83.36984       	83.76623       	84.06925       	83.56472       	83.16181       	83.272026      	85.920746      	83.085205      	82.53844       	83.292984      	83.34084       	83.88452       	84.39864       	83.92043       	83.329445      	83.89864       	84.066696      	83.751144      	84.11479       	83.781425      	84.05984       	83.6189        	83.9122        	84.05123       	83.94904       	83.7193        	84.49189       	84.30949       	83.52918       	84.13632       	84.79209       	84.23922       	84.108345      	84.35743       	84.85158       	84.6378        	
73.69322       	73.66961       	72.95243       	73.191635      	72.72438       	72.42475       	72.87388       	74.31872       	80.79521       	84.49193       	83.59525       	83.473434      	83.124695      	83.499016      	84.20249       	84.32994       	83.762924      	83.17936       	84.19247       	83.8229        	83.58476       	84.79753       	84.64515       	84.66498       	84.99608       	84.309525      	84.65834       	85.347084      	85.15364       	86.331375      	86.27254       	88.08956       	84.53055       	84.11188       	80.61967       	78.228615      	77.442856      	77.99151       	78.49554       	77.99252       	80.99925       	79.967384      	83.72715       	82.23333       	85.70429       	85.85359       	85.304924      	84.624664      	85.414154      	84.70429       	84.70238       	84.6908        	84.934         	84.83818       	84.6937        	84.52429       	84.297005      	84.04591       	84.55583       	83.88374       	84.19493       	84.55199       	84.07684       	83.950096      	84.673874      	84.590614      	84.58106       	84.97514       	86.423615      	87.164116      	84.29667       	81.47258       	80.38144       	83.70576       	83.30574       	83.38064       	83.38343       	83.92075       	82.9637        	84.4699        	83.60853       	83.79682       	83.86505       	83.44769       	83.69136       	83.56961       	83.86798       	84.29084       	84.00494       	84.87504       	83.548706      	83.88745       	83.38737       	83.53541       	83.91945       	84.42543       	83.93321       	84.86341       	85.39115       	84.55146       	
73.43481       	73.37891       	73.73233       	72.86753       	73.41268       	71.92157       	73.46355       	73.65564       	78.78129       	83.92278       	83.56247       	83.286285      	83.762146      	83.514366      	83.07156       	83.7144        	84.11404       	83.41713       	83.30831       	82.93583       	83.63226       	83.34008       	83.566376      	83.7137        	83.877815      	83.78207       	84.09678       	84.34167       	83.92703       	84.62235       	85.47098       	85.1574        	85.88626       	86.35196       	82.66426       	80.58782       	81.12329       	82.7335        	84.199814      	82.84117       	85.78027       	85.1696        	85.46999       	85.397446      	84.733376      	84.65106       	83.99068       	84.904465      	84.01583       	84.42333       	84.45993       	84.047806      	83.87279       	84.172195      	83.96782       	84.19356       	84.12859       	83.97991       	83.69731       	83.97489       	83.74243       	83.82262       	84.21792       	83.79749       	84.870544      	83.599236      	83.5138        	82.75845       	83.49719       	83.67793       	83.58743       	83.79229       	83.926796      	83.69253       	84.40121       	83.99086       	84.57868       	84.137184      	84.56404       	83.60574       	83.73277       	83.84395       	83.48353       	83.89001       	84.09691       	83.27276       	83.30448       	84.63162       	84.66043       	83.78502       	84.95014       	85.09698       	84.31593       	83.78301       	84.975945      	85.155304      	85.40015       	86.79252       	85.354126      	83.69985       	
74.09226       	74.290504      	73.606285      	73.673256      	72.753784      	71.03105       	71.87585       	73.497055      	77.17898       	82.07113       	84.28608       	83.63417       	83.15648       	83.62149       	83.398         	85.118286      	83.9987        	83.353065      	83.43822       	83.14002       	83.859276      	83.2833        	83.462135      	83.55085       	82.76492       	83.30482       	84.18093       	83.49789       	83.60284       	83.56134       	84.13388       	83.930046      	84.226456      	84.24438       	85.841835      	85.40389       	84.393074      	84.07011       	84.63923       	84.56617       	84.67807       	83.94134       	84.59477       	84.22623       	84.30738       	83.38976       	84.5089        	83.569305      	84.06469       	83.48529       	83.943115      	83.92532       	83.81711       	83.20397       	84.11357       	83.647575      	83.384315      	83.88273       	83.26197       	84.3548        	83.0869        	84.113396      	83.01087       	86.984055      	85.088         	83.908676      	83.03689       	82.982834      	83.04105       	83.30881       	84.65818       	86.37202       	84.14885       	83.28508       	83.801216      	83.22962       	83.31979       	82.73565       	83.954124      	83.39364       	83.184654      	83.75582       	83.57616       	84.35585       	83.87841       	84.291504      	84.3753        	85.62126       	84.57163       	84.08587       	84.36108       	84.910736      	83.281876      	85.030594      	85.01384       	84.686195      	86.0352        	85.1264        	84.70813       	83.581856      	
74.37597       	74.21552       	74.08267       	73.81856       	73.47195       	73.06038       	72.99183       	72.71846       	75.67782       	81.32836       	84.84457       	83.97255       	83.83364       	84.34772       	83.500114      	84.547005      	84.62834       	83.92651       	84.42858       	83.952644      	84.41115       	83.8818        	84.13745       	84.361115      	83.9944        	84.58513       	84.1203        	84.14688       	83.90996       	84.60131       	84.51034       	84.58927       	84.55085       	85.37401       	85.037994      	84.44959       	83.93186       	84.650085      	84.56972       	84.11277       	84.72907       	84.92666       	84.89094       	84.112175      	84.617         	84.21109       	84.31987       	84.55245       	84.40012       	84.213005      	83.934044      	84.161644      	84.245155      	84.01813       	84.08924       	83.941444      	84.11142       	84.41818       	84.27856       	83.90865       	83.88873       	83.94616       	84.05399       	83.88995       	84.248505      	84.18286       	84.07589       	83.8323        	83.77757       	83.85658       	84.10271       	84.43061       	84.693375      	84.77553       	84.910934      	84.23503       	84.05708       	84.633446      	84.29823       	84.983894      	84.41422       	84.73738       	84.114655      	84.5277        	84.84859       	84.57178       	84.641914      	85.117256      	84.51395       	84.292656      	84.34925       	84.789314      	84.690544      	85.216385      	84.65927       	85.40095       	85.63494       	86.0328        	85.57734       	84.86498       	
73.40439       	73.47085       	73.34358       	73.07529       	72.566826      	71.433105      	71.17031       	72.14644       	74.198204      	79.39963       	83.042435      	83.882484      	83.054695      	83.27436       	84.18917       	83.81645       	83.87397       	83.7997        	83.60777       	84.37261       	83.40299       	82.66657       	84.19323       	83.55029       	83.73617       	83.91415       	83.42417       	83.777214      	83.092285      	83.80663       	83.88298       	83.31942       	83.98731       	83.70953       	83.72485       	83.67695       	83.884476      	84.18433       	83.81043       	83.22739       	84.25669       	83.5505        	83.56677       	83.62876       	84.11948       	84.00754       	83.56523       	83.48547       	83.82096       	83.33514       	83.23974       	83.708595      	82.88578       	83.814865      	83.30032       	83.730644      	83.3666        	83.284615      	83.70762       	83.48957       	83.26363       	83.3834        	83.28911       	83.628204      	83.491295      	83.55866       	83.396225      	83.352936      	83.543015      	83.58294       	83.34583       	84.17489       	83.360344      	83.52927       	84.11752       	83.934975      	83.8694        	83.82808       	84.06579       	84.02632       	83.75959       	83.758224      	83.380806      	84.41          	84.28087       	83.494644      	84.29897       	84.35173       	84.49452       	83.93718       	84.09106       	84.661285      	84.380806      	84.26943       	84.5999        	84.477615      	84.56647       	84.71276       	84.14354       	83.68402       	
73.331825      	73.36304       	72.91758       	72.853836      	72.38568       	71.87722       	72.37644       	72.1293        	73.54423       	78.12183       	83.64473       	84.363976      	83.7002        	83.92143       	84.106415      	84.017944      	83.33445       	83.89527       	84.23886       	84.035446      	83.66144       	83.928986      	84.27724       	84.09847       	83.832184      	83.71102       	84.730515      	83.818375      	83.834946      	84.2898        	83.53258       	83.33118       	84.00336       	84.204865      	84.16769       	84.06523       	83.969         	84.04658       	83.835526      	83.95317       	83.96412       	84.07674       	84.01226       	84.01859       	83.26909       	83.76889       	83.651         	83.194595      	84.07066       	83.70397       	83.79478       	83.861305      	83.97643       	84.36521       	84.04598       	83.60481       	84.308754      	84.31668       	83.80265       	84.107994      	84.227615      	83.90416       	84.4512        	83.79694       	84.13885       	84.46318       	84.038185      	84.141884      	83.956024      	83.67563       	83.41817       	84.31172       	84.2952        	84.37985       	84.31849       	84.63049       	84.08497       	83.65063       	84.23437       	84.966225      	84.13995       	84.5403        	83.77971       	84.552605      	84.53117       	83.83008       	84.62922       	84.05605       	83.74647       	84.120964      	84.953476      	84.12094       	84.2042        	84.43459       	84.37871       	84.58741       	84.83149       	85.26018       	84.60818       	84.2751        	
73.51604       	73.30511       	72.521324      	72.30412       	73.999466      	73.80312       	73.814835      	73.417725      	72.80208       	77.513725      	82.7979        	83.30925       	83.64629       	83.00281       	83.15854       	83.66304       	83.11713       	83.63149       	82.919655      	83.50895       	83.63944       	83.41544       	83.14133       	83.83667       	83.42119       	83.117645      	83.98091       	83.27259       	83.465         	83.03634       	83.489006      	83.63713       	83.61301       	83.26454       	84.06945       	83.77585       	82.95941       	83.4225        	83.0109        	83.76381       	83.15207       	83.6339        	83.16272       	83.08265       	83.13386       	83.63521       	83.401245      	83.52092       	83.34074       	83.20794       	83.476006      	83.347305      	83.93612       	83.82055       	83.46141       	83.40065       	83.015305      	83.42547       	83.308685      	83.350746      	83.44126       	83.891594      	83.698654      	83.46686       	83.0149        	83.530914      	83.88863       	83.514206      	83.680626      	83.21331       	83.63634       	83.75949       	83.64598       	83.497894      	84.1388        	83.999695      	83.48409       	83.95083       	84.11657       	83.45249       	83.286316      	84.37638       	83.49187       	83.88474       	84.12644       	84.18589       	83.67167       	84.19082       	84.059105      	84.25851       	84.057846      	84.102844      	84.34474       	84.266426      	84.14464       	84.73098       	84.298195      	85.228645      	84.932755      	84.351166      	
75.422325      	76.584435      	76.02299       	75.43533       	77.21396       	75.363365      	76.14191       	75.73424       	76.901665      	79.12225       	83.85864       	84.01126       	83.96279       	83.889885      	83.90074       	83.83798       	83.53097       	83.32502       	83.94862       	83.53483       	83.66165       	83.557144      	83.96348       	84.023994      	83.30127       	83.74513       	83.99074       	84.13697       	84.36846       	83.30074       	83.581566      	83.97777       	83.871506      	83.69662       	83.949524      	84.19066       	83.63669       	83.15141       	83.83715       	84.11406       	83.622314      	84.06588       	83.71622       	84.72261       	83.92887       	83.57297       	83.92449       	83.452034      	84.25283       	83.48967       	83.90134       	83.617836      	83.858185      	83.430405      	84.30601       	84.050476      	83.27538       	84.02069       	84.359375      	84.06938       	83.921425      	83.957214      	83.98615       	83.31462       	83.457115      	83.98294       	83.55849       	83.34389       	83.816696      	83.68725       	83.89223       	84.27862       	84.16867       	83.997215      	83.90365       	83.64041       	84.20763       	83.451195      	83.93841       	83.998085      	83.83204       	83.81411       	84.02919       	83.92412       	83.87072       	83.24039       	84.09303       	84.22016       	84.108925      	83.75643       	84.29382       	83.649895      	84.06581       	83.81383       	84.01136       	84.54381       	83.83974       	83.6894        	84.10266       	84.07356       	
76.91685       	77.980965      	76.65724       	78.45795       	78.099976      	79.76089       	77.85553       	79.06805       	79.63085       	83.52494       	84.18863       	83.74891       	83.39165       	83.948784      	83.64572       	83.66982       	83.895966      	83.60629       	83.92622       	83.883156      	83.36671       	83.69135       	84.03941       	83.273926      	83.95908       	83.64966       	83.42682       	83.465126      	83.200714      	83.4889        	83.776276      	83.82001       	83.89634       	83.75548       	83.58559       	83.49067       	84.036964      	83.13252       	82.98257       	84.0466        	83.54128       	83.31611       	83.43206       	84.017296      	83.517555      	83.57611       	83.95755       	83.558044      	83.558         	83.83923       	83.09237       	83.31021       	83.27539       	84.245834      	83.4976        	83.72832       	84.24818       	84.10814       	84.0285        	83.98049       	83.86469       	83.74555       	83.85983       	84.23715       	83.98484       	83.910225      	83.726555      	84.10848       	83.9229        	83.83799       	84.15816       	83.8275        	83.87202       	84.56228       	83.90309       	84.04827       	84.28083       	83.84096       	84.1413        	84.104454      	84.13327       	84.62356       	83.90286       	84.252594      	83.872826      	84.398026      	84.54677       	84.17746       	84.05209       	83.45319       	84.28042       	84.04663       	84.55758       	84.41481       	84.6299        	84.87459       	84.8186        	84.39555       	84.320465      	84.19117       	
78.4525        	79.13966       	79.07598       	81.49272       	81.64723       	84.88294       	84.68001       	84.363884      	84.35113       	83.87715       	83.90593       	83.626816      	83.56498       	83.10102       	83.50166       	83.14458       	83.82316       	83.75382       	84.03466       	83.07224       	83.3738        	83.08354       	83.06587       	83.46259       	83.29626       	83.287544      	83.350204      	83.65467       	83.57567       	83.203835      	83.821815      	83.22839       	83.45947       	83.72186       	83.719826      	83.473236      	83.25          	83.306015      	83.159454      	82.96613       	83.15564       	83.65953       	83.22217       	83.857735      	83.49017       	83.56411       	83.3719        	83.636856      	83.240166      	83.37862       	83.508484      	83.3368        	82.99665       	83.0809        	83.882286      	83.7538        	83.266335      	83.56849       	83.669655      	83.28249       	83.70089       	83.85332       	83.43747       	83.66961       	83.53433       	83.60489       	83.226135      	83.98953       	82.97032       	83.4318        	83.07619       	83.10452       	84.06878       	83.36343       	83.78824       	83.77081       	83.671524      	83.65589       	83.688446      	83.64389       	83.96018       	83.50932       	83.429855      	83.60294       	83.18191       	83.60912       	84.04233       	83.25862       	83.5972        	83.84443       	83.21884       	83.7519        	83.77768       	83.79902       	84.16124       	84.74313       	85.522255      	84.56691       	83.84865       	83.325806      	
82.547554      	82.71682       	86.702995      	83.81665       	83.32031       	84.683174      	84.70798       	84.10527       	83.82333       	84.214195      	84.105835      	83.78018       	83.60126       	83.91995       	83.626045      	83.692566      	84.09404       	83.96482       	83.74683       	83.77521       	83.52529       	83.42677       	83.18144       	83.36767       	84.25987       	83.424576      	83.33909       	83.77303       	83.19971       	83.6313        	83.70482       	83.153404      	83.63094       	83.4053        	83.92728       	83.55122       	83.604744      	83.60856       	83.44163       	83.55376       	83.32666       	83.3651        	83.62748       	83.93337       	83.89964       	83.78122       	83.44119       	83.6345        	83.66426       	83.33207       	83.2934        	83.66167       	83.73708       	83.85999       	83.746666      	83.74805       	83.54307       	83.43333       	83.070305      	83.65513       	83.73546       	83.58152       	84.12208       	83.64042       	83.86375       	83.77728       	83.99611       	84.18429       	83.27808       	83.840645      	83.62209       	83.49329       	83.67464       	84.518616      	84.09002       	83.88517       	84.27224       	83.75921       	84.01919       	83.77289       	83.854225      	83.97398       	84.297485      	83.533035      	83.9209        	84.30468       	83.92066       	84.10052       	84.145355      	83.7269        	84.01062       	84.33711       	83.708145      	84.43671       	84.74075       	83.980194      	85.01542       	85.45963       	84.735176      	84.15958       	
85.672935      	84.68867       	85.15428       	84.999245      	84.542755      	84.51632       	84.31022       	84.44861       	84.46177       	84.24523       	84.27071       	84.50124       	84.16068       	84.53425       	83.76766       	84.23809       	84.145775      	84.30445       	84.24307       	84.27559       	84.56107       	84.04555       	84.260925      	84.54102       	84.12146       	84.288925      	84.55733       	84.601395      	84.14051       	84.11023       	84.05014       	84.92623       	83.7968        	84.502785      	84.37095       	83.628525      	84.46074       	84.48176       	84.33654       	83.92774       	83.86999       	84.49793       	84.03336       	84.10264       	84.2785        	83.77967       	84.0929        	84.698296      	84.03565       	84.703514      	84.10308       	84.24507       	83.81501       	83.975784      	83.36203       	84.06351       	83.81701       	84.1676        	83.92599       	83.47099       	83.94234       	84.293846      	84.08361       	83.83126       	84.36519       	83.98261       	84.27264       	84.38043       	84.04834       	84.17578       	84.205284      	84.12381       	84.439995      	84.82935       	84.49468       	84.599464      	84.76997       	84.43979       	84.62354       	84.90734       	84.52905       	84.33214       	84.52416       	83.7341        	84.26193       	84.39255       	85.1116        	84.46025       	84.629074      	84.63843       	84.553696      	84.493355      	84.752945      	85.20018       	85.05864       	84.98312       	85.340034      	86.52007       	86.45067       	84.76635       	
84.15443       	84.66149       	84.52937       	84.29005       	84.29151       	83.65141       	83.6825        	83.97655       	83.645004      	83.94434       	83.87207       	84.00903       	84.09433       	83.68954       	83.70657       	83.9183        	83.926476      	83.79283       	84.03173       	83.46065       	83.39424       	84.08719       	83.70573       	83.526505      	83.21893       	85.7858        	83.51102       	83.17412       	84.011894      	83.654564      	84.14628       	83.600235      	83.92523       	84.19794       	83.40077       	84.06765       	84.20635       	83.21663       	83.7409        	82.991066      	83.93452       	83.89743       	83.57909       	85.223755      	85.69448       	84.077736      	84.09797       	83.97596       	83.69592       	84.32683       	83.771126      	84.36917       	83.71492       	84.262985      	83.64159       	84.25365       	84.14008       	84.031555      	84.340645      	84.181526      	83.87971       	84.71426       	84.31995       	84.02569       	84.222626      	84.314644      	84.30204       	84.32628       	84.47379       	84.6696        	83.87957       	83.87549       	84.63941       	84.81822       	84.78138       	84.759186      	85.070305      	84.392654      	84.73567       	84.44365       	84.7553        	84.80631       	84.70973       	85.342575      	84.64031       	84.85383       	84.393196      	85.02099       	84.12333       	84.62655       	85.03842       	84.74412       	84.620995      	85.272675      	84.90506       	85.563995      	85.70968       	85.52249       	85.66662       	86.77277       	
83.941895      	83.66613       	84.2734        	84.35256       	83.9666        	83.42085       	83.63442       	84.12208       	83.30777       	83.71725       	83.70448       	83.56155       	83.65787       	83.47444       	83.717         	83.38429       	83.45378       	83.59682       	83.31169       	83.613785      	84.0492        	83.48853       	83.377396      	82.976395      	83.71844       	85.40755       	83.32793       	81.81859       	85.04149       	83.91629       	84.777214      	84.55115       	84.8217        	84.312294      	84.31295       	84.85666       	84.55859       	84.761856      	85.02412       	84.518875      	84.878624      	85.00469       	87.15473       	83.04972       	81.2931        	83.62853       	84.044235      	84.24527       	84.33983       	84.54816       	84.28434       	84.48761       	83.937706      	84.638435      	84.035164      	84.213684      	84.87096       	84.27985       	84.05541       	84.28977       	84.44263       	83.602905      	84.04446       	84.84225       	84.32674       	84.606285      	84.45831       	84.58231       	84.04815       	84.494064      	84.04929       	84.466385      	83.97864       	84.486465      	83.93134       	84.69898       	84.59591       	83.94605       	84.707016      	84.40968       	84.36123       	85.174675      	84.61935       	84.55831       	84.32764       	84.15268       	85.00108       	84.73106       	84.257744      	84.96105       	84.86866       	84.000046      	84.90832       	85.69525       	84.64583       	84.86415       	85.41843       	87.13657       	87.75473       	85.213326      	
83.89755       	84.190895      	83.806755      	83.83189       	83.516014      	83.48269       	84.04975       	83.56641       	83.29605       	84.09987       	83.80234       	83.66353       	84.14371       	83.98956       	84.253876      	83.70367       	83.845665      	84.00869       	84.364494      	84.064926      	83.40908       	84.234924      	83.40215       	83.90323       	83.63324       	84.157104      	84.081314      	83.93493       	83.64027       	83.47627       	83.4678        	84.24128       	83.56313       	83.534996      	83.96486       	83.72427       	84.04302       	83.87877       	83.881035      	83.38055       	84.50373       	83.48482       	84.24752       	81.72025       	83.00291       	83.74589       	84.35772       	84.247604      	84.33095       	84.02024       	83.80383       	84.553154      	84.12984       	83.90621       	83.761566      	84.148994      	84.1024        	84.23847       	83.713936      	83.71391       	84.14055       	83.838875      	84.20727       	83.99716       	83.71181       	83.687454      	84.27661       	83.89689       	83.94817       	83.9786        	83.99311       	83.88628       	83.66299       	84.20215       	84.283226      	83.94036       	84.868675      	84.10776       	84.45262       	84.54364       	83.53533       	84.29069       	84.141975      	84.25135       	84.18163       	84.34822       	84.778305      	84.508156      	84.36156       	84.309746      	84.719284      	84.47022       	84.673096      	84.61482       	85.27339       	84.659996      	84.48611       	86.69918       	87.170364      	83.37721       	
83.443596      	83.602806      	83.92562       	83.057724      	83.549034      	83.62201       	83.57714       	83.4984        	83.82774       	83.715614      	83.91225       	83.92699       	83.2898        	84.043785      	83.83089       	83.23773       	83.72633       	84.01324       	84.01507       	83.9172        	84.34267       	83.82906       	83.64321       	84.12415       	84.21973       	83.609436      	84.564476      	84.126915      	83.79266       	83.56052       	83.55027       	84.19792       	84.01105       	83.56303       	83.591896      	84.294975      	83.636345      	83.704704      	83.96404       	83.50478       	83.5499        	83.57505       	84.29179       	84.894554      	83.85415       	84.30371       	84.0361        	83.94244       	83.85286       	84.05087       	84.23519       	84.121445      	84.21756       	84.0917        	83.61024       	83.60448       	83.8468        	83.825195      	84.11933       	83.59253       	84.389534      	83.81677       	83.838295      	84.08153       	84.41957       	83.628296      	84.08719       	84.03844       	83.88623       	84.12051       	83.52967       	83.50196       	84.10312       	83.29125       	84.421326      	84.69176       	84.618004      	83.99332       	84.38921       	84.70552       	83.7838        	83.893166      	83.94685       	84.02931       	84.03185       	84.13723       	84.499084      	84.864006      	84.67914       	84.59851       	84.75511       	83.80707       	83.9291        	84.87387       	84.61984       	84.379776      	83.2049        	86.24663       	85.15439       	80.71676       	
84.91552       	84.01911       	84.6799        	84.47915       	84.23575       	83.70661       	83.63817       	83.83739       	84.15025       	84.07519       	84.08506       	84.42652       	84.34454       	84.87274       	84.41496       	84.3288        	84.67574       	84.15596       	84.252785      	83.90631       	84.233536      	84.058044      	84.07498       	84.10934       	84.32133       	84.212234      	84.339325      	84.0941        	84.20417       	84.20219       	84.24197       	84.41543       	84.42091       	83.8052        	84.72913       	84.40334       	84.30695       	84.83373       	83.60571       	84.13579       	84.55731       	83.83327       	84.467606      	84.18078       	83.883606      	84.570244      	84.31831       	84.429985      	84.315796      	84.23617       	84.3989        	83.82844       	84.236244      	84.36784       	84.597435      	84.215614      	84.25004       	84.19947       	84.61692       	84.27949       	84.38733       	85.13094       	84.491806      	83.85556       	84.8075        	84.4352        	84.40211       	84.800896      	84.62188       	84.509445      	85.16879       	84.49133       	84.38683       	84.265884      	84.33609       	84.71633       	84.91726       	84.990616      	84.80853       	85.0506        	84.92509       	84.978325      	84.72554       	85.36027       	84.57875       	84.79105       	85.42005       	85.05569       	84.55409       	84.616264      	84.42404       	84.40401       	85.34829       	85.17198       	85.8224        	85.708084      	85.43058       	87.66039       	87.95          	84.34391       	
83.879456      	83.695366      	83.87412       	84.13519       	83.578445      	83.66575       	84.13706       	84.050316      	83.623695      	83.93239       	84.586655      	84.23884       	84.027466      	84.06294       	84.05748       	84.36144       	83.974945      	84.12962       	83.99148       	84.45949       	84.19566       	84.125984      	83.864044      	84.170746      	84.31509       	83.89079       	83.430016      	83.825455      	84.126724      	83.900536      	84.08737       	84.290146      	83.92432       	84.6157        	84.30748       	84.55613       	84.29964       	84.62224       	84.34992       	84.037094      	84.01383       	83.88955       	84.379814      	84.29623       	84.12125       	84.3348        	84.53385       	84.074196      	84.02984       	84.11946       	83.899315      	84.11925       	84.03985       	84.12542       	83.72022       	84.610214      	84.31426       	84.08522       	84.440674      	84.34782       	84.12788       	84.080185      	83.74548       	84.48077       	84.50172       	83.76807       	84.15204       	84.077225      	83.38148       	83.75632       	84.70405       	83.975174      	83.10943       	83.40594       	83.99471       	83.63326       	83.893486      	83.733116      	83.45478       	83.83797       	84.378784      	84.17357       	84.07042       	83.528244      	83.5435        	84.10549       	84.067894      	83.51071       	84.02473       	84.618904      	84.06281       	84.13721       	84.32873       	84.16819       	84.320694      	86.12029       	84.299225      	84.76659       	86.7151        	85.20676       	
84.627884      	84.591545      	84.81251       	84.730545      	84.79727       	84.83796       	84.02085       	84.847534      	84.30917       	84.388374      	84.58034       	84.89239       	84.669106      	84.65263       	84.856674      	84.68146       	85.02615       	84.492874      	84.65753       	85.17401       	84.63469       	84.65481       	85.1019        	85.09973       	84.55529       	84.69729       	85.76053       	84.45822       	84.52667       	85.09288       	84.833084      	84.39557       	84.86699       	84.90527       	84.94278       	84.70575       	84.70026       	84.74213       	84.969955      	84.90843       	84.458435      	84.42663       	84.23997       	85.06803       	84.87012       	84.38536       	84.62518       	84.626335      	84.121666      	84.777985      	85.410805      	84.81722       	84.74736       	84.745834      	84.774574      	84.7302        	84.98142       	84.77655       	84.99699       	85.39392       	84.842606      	84.321495      	84.74285       	84.83886       	85.04321       	85.09868       	84.101036      	84.933266      	84.86725       	84.513535      	84.34815       	84.591286      	84.70742       	84.72328       	85.219315      	85.20915       	85.14067       	85.35069       	85.244354      	85.31392       	85.22009       	84.51839       	84.51081       	84.79904       	84.85082       	85.66119       	85.61075       	85.71961       	85.463554      	85.58555       	85.82013       	84.89391       	85.954735      	86.03271       	86.01972       	86.37789       	86.36635       	88.22365       	88.785126      	86.54474       	
84.0077        	84.20808       	84.13397       	84.31631       	84.56748       	84.39627       	84.6877        	84.70957       	84.05605       	84.10262       	84.617195      	85.03023       	84.524925      	84.92534       	84.18001       	84.59409       	84.35212       	84.083565      	84.39127       	84.11215       	84.24461       	84.67005       	84.518684      	83.80393       	84.69934       	84.85536       	84.014404      	84.43994       	84.25886       	83.82742       	84.58472       	84.3844        	84.484406      	84.35083       	84.70033       	83.98841       	84.382774      	84.927536      	84.47964       	84.87223       	84.73282       	84.34408       	84.133705      	84.708786      	84.84126       	84.85326       	84.566635      	84.75088       	84.26789       	84.56186       	84.0935        	83.980316      	84.11832       	83.66264       	83.77362       	83.86094       	83.83682       	83.64129       	83.99567       	84.127625      	83.74706       	84.458176      	84.04812       	83.926125      	84.18607       	83.81304       	84.71599       	85.4641        	84.09371       	83.35465       	86.88222       	84.917885      	82.05199       	81.33562       	82.975624      	83.68136       	85.38312       	85.376945      	84.92508       	84.98178       	84.81229       	84.9132        	85.20591       	85.278275      	85.1627        	85.301186      	85.418         	85.64733       	86.009254      	85.713684      	85.46269       	85.980385      	85.41056       	85.60815       	86.604515      	86.69026       	86.90792       	88.60193       	90.182686      	88.456696      	
83.899925      	84.43999       	84.1682        	84.45069       	83.76231       	84.031845      	84.02583       	83.92119       	83.85837       	84.02604       	84.13185       	83.691376      	84.455444      	84.365364      	83.983665      	84.07471       	83.76526       	84.484184      	84.326744      	84.48179       	84.52838       	84.5483        	84.84717       	84.32742       	84.544495      	84.45135       	84.53043       	84.427124      	84.21543       	84.261986      	84.21898       	84.314606      	84.16684       	83.84615       	83.98355       	84.39043       	84.560684      	84.46571       	85.61031       	84.46176       	83.83128       	84.26827       	84.174225      	84.501526      	84.194046      	84.500465      	84.59994       	84.74474       	84.54244       	83.92879       	84.532394      	84.43748       	84.00314       	84.110794      	84.12263       	83.862976      	84.34037       	84.45474       	83.639114      	83.47629       	84.68016       	83.67153       	84.58473       	84.03763       	84.84058       	85.31613       	80.872734      	82.04339       	79.32122       	76.889496      	75.74722       	72.939316      	72.22943       	71.64131       	72.843216      	73.571625      	77.89084       	84.32786       	85.09225       	84.932655      	84.93464       	85.31516       	85.18857       	84.508064      	85.35444       	85.47708       	85.15387       	84.90427       	86.12966       	85.51167       	85.51793       	85.53117       	85.29501       	86.297195      	86.65985       	86.907814      	86.71055       	88.85958       	89.86248       	86.98266       	
83.948044      	83.45773       	83.78416       	83.58484       	83.50142       	83.39057       	83.1879        	83.34494       	83.132744      	83.60324       	82.906784      	83.25353       	83.09048       	83.90742       	83.70683       	83.989685      	83.97173       	83.54572       	83.82931       	83.84802       	84.095276      	83.95489       	83.235085      	83.93489       	83.883705      	83.53753       	83.70892       	83.88703       	83.911865      	84.10742       	83.8126        	83.98985       	83.6974        	83.519264      	83.62728       	83.43543       	83.851494      	83.76021       	83.19361       	83.66375       	83.56716       	83.16949       	83.11377       	83.432274      	84.13024       	83.29744       	83.52437       	83.19234       	83.479614      	83.438774      	82.79939       	83.39242       	83.46305       	83.03144       	83.41228       	82.86799       	82.977455      	83.79741       	83.66201       	83.575615      	83.25601       	83.58928       	86.468925      	82.167         	78.63512       	74.00236       	72.62093       	72.51704       	71.60725       	70.97883       	71.30536       	71.00452       	70.43378       	69.88036       	70.269264      	70.83419       	71.43849       	82.07083       	84.4697        	84.80062       	84.52077       	84.537605      	84.9464        	84.868004      	84.77502       	85.30245       	84.76731       	84.749084      	85.50782       	85.175545      	85.161865      	85.83028       	85.25176       	86.14802       	86.22824       	86.26756       	86.57023       	87.82253       	89.55883       	88.906876      	
83.46097       	82.97044       	83.68668       	83.86941       	83.33033       	83.72907       	83.73044       	83.223946      	83.51909       	83.493645      	83.219826      	83.477745      	83.92733       	83.54371       	83.67478       	83.96911       	83.887634      	83.79366       	83.780205      	84.13914       	83.63813       	84.03598       	83.49087       	83.75798       	83.51937       	83.0302        	83.38298       	83.89423       	83.626114      	83.469795      	83.92255       	83.94046       	84.360115      	84.438034      	83.91238       	84.183334      	83.9854        	84.54706       	84.02863       	83.70563       	83.72999       	83.80195       	83.86573       	83.89212       	83.8369        	83.57792       	83.71062       	83.36949       	83.872986      	83.80712       	83.69818       	83.59406       	83.688965      	83.78132       	84.23397       	84.34845       	83.82191       	86.62426       	81.67038       	79.43086       	80.16197       	75.99553       	74.34133       	72.344955      	71.809875      	70.94822       	70.99567       	71.57003       	71.45367       	71.353035      	72.305885      	71.55379       	71.50321       	72.05745       	70.78237       	71.48872       	72.86165       	78.22107       	84.43106       	84.40382       	84.607185      	84.058495      	84.20824       	84.7187        	84.4706        	84.91504       	84.7604        	85.38327       	84.92682       	84.70523       	85.35736       	84.89439       	84.891884      	84.890015      	85.74568       	85.75915       	85.76145       	85.984535      	88.13089       	87.90533       	
83.45943       	84.453705      	84.17904       	84.03268       	83.77982       	84.15545       	84.001656      	84.47291       	83.66147       	84.2004        	84.07257       	84.23411       	84.40949       	83.989105      	84.46119       	84.56584       	83.86726       	84.40777       	84.049126      	83.844604      	84.11037       	84.21606       	83.227776      	83.60248       	84.06115       	83.657455      	83.860405      	84.18754       	83.83679       	84.05687       	84.03718       	83.85663       	84.06132       	83.6205        	83.55647       	83.18323       	84.00752       	83.04297       	84.61622       	82.9907        	82.63756       	83.5465        	83.03009       	84.06664       	83.55076       	83.18883       	82.960464      	83.87425       	84.26094       	83.49374       	83.5           	83.47821       	85.513374      	85.253456      	82.55931       	77.54566       	74.87487       	75.01454       	73.62899       	72.46679       	72.46174       	71.15541       	70.9731        	71.860825      	71.66799       	71.7715        	72.00705       	72.0522        	72.185234      	72.67964       	72.62303       	72.30694       	72.31658       	72.29857       	71.83846       	71.63773       	71.85368       	76.968315      	83.57153       	84.76329       	84.21022       	84.9982        	84.881516      	84.81311       	84.9056        	84.649         	84.68447       	84.97773       	85.09671       	85.22861       	85.11807       	85.538376      	85.61416       	85.24825       	85.55174       	85.884254      	86.45146       	86.42555       	88.81163       	88.201515      	
84.31824       	83.68157       	83.86902       	83.7954        	83.39845       	83.92325       	83.957466      	83.86868       	83.19569       	83.81349       	83.40483       	83.61361       	83.60458       	84.31706       	83.8907        	84.16555       	83.26802       	84.43855       	84.16799       	83.40502       	83.788475      	84.07332       	84.05662       	84.13462       	83.63029       	84.52057       	84.67782       	84.57287       	84.463455      	84.32631       	84.55444       	83.89105       	83.82159       	84.71127       	83.43116       	84.2           	83.9453        	83.86895       	84.797935      	83.546524      	84.45344       	83.46215       	83.72794       	83.43918       	84.02509       	84.13009       	83.538704      	83.47313       	86.012024      	83.71141       	82.03636       	77.88893       	75.12348       	74.301025      	73.59472       	71.57865       	71.03127       	71.45965       	71.199066      	71.44036       	71.825386      	71.30234       	71.8329        	71.69467       	71.57683       	72.35082       	73.00706       	71.76447       	72.8965        	73.57924       	73.26362       	73.83029       	73.61963       	72.375336      	71.949104      	72.58511       	73.74338       	76.055565      	81.73614       	84.855705      	84.76644       	85.13477       	84.64795       	84.92094       	84.871315      	85.02703       	84.91578       	84.58959       	84.39597       	85.26187       	84.94609       	85.38466       	85.066284      	84.72733       	85.23854       	84.92227       	85.39866       	85.36647       	85.25089       	85.91473       	
83.69961       	83.89896       	84.009285      	83.98943       	83.97383       	83.20736       	84.248505      	83.8053        	83.82576       	83.920006      	83.63316       	83.64265       	83.64805       	83.41014       	83.95886       	84.11872       	84.12307       	83.571335      	83.30057       	83.44168       	84.005424      	83.980156      	84.27674       	84.26809       	83.73015       	84.137184      	84.84509       	83.97584       	83.9535        	84.12231       	84.08067       	84.11583       	84.39466       	84.31743       	84.06871       	84.415054      	83.96868       	84.23782       	84.62789       	84.66532       	84.81363       	84.68121       	84.67963       	84.19611       	88.161026      	80.81172       	77.68619       	78.578575      	76.88997       	74.33737       	73.280136      	72.16916       	71.485916      	71.95058       	71.62344       	71.261505      	71.339836      	71.62108       	72.47945       	71.63997       	72.09513       	72.061615      	72.407875      	73.03913       	72.24659       	72.881134      	73.495155      	72.60679       	73.00742       	73.18989       	74.142746      	74.082         	71.83117       	71.04851       	71.61382       	71.24308       	72.032074      	76.4293        	81.297325      	84.542114      	83.95805       	83.845436      	84.11861       	84.09054       	83.9716        	83.801956      	84.02514       	84.51176       	84.152466      	83.825165      	84.61211       	84.2644        	84.13367       	84.423065      	84.47715       	84.44924       	84.860794      	85.46708       	84.55513       	84.87554       	
83.96347       	83.96116       	83.84516       	84.015785      	83.625725      	84.035515      	83.60067       	83.13707       	83.9285        	83.87745       	83.67055       	83.51114       	83.99147       	84.10047       	83.57051       	84.34285       	84.369316      	84.31481       	84.31263       	83.73388       	84.31989       	84.107864      	84.245674      	83.87525       	84.27452       	84.003494      	84.08622       	84.13444       	84.10769       	84.37364       	84.75629       	83.54355       	84.71612       	84.253105      	83.51336       	84.33098       	84.77488       	83.903595      	84.601845      	85.21498       	85.44497       	85.49554       	80.153915      	78.809135      	75.71873       	72.741684      	71.598366      	71.64239       	71.950294      	71.38654       	71.34081       	71.694664      	71.666275      	72.11396       	71.979095      	71.62599       	72.244576      	72.44777       	72.39197       	72.683754      	72.7262        	72.745605      	72.76231       	72.90442       	73.26974       	73.12418       	73.20841       	73.161995      	73.99664       	73.63443       	74.43022       	73.78965       	72.25336       	73.21993       	71.75724       	71.225525      	71.28789       	71.63745       	79.29189       	84.25087       	84.94107       	84.784874      	84.37075       	84.49395       	84.96193       	84.50427       	84.77258       	84.5627        	84.251595      	84.92731       	85.273125      	85.00069       	84.87814       	85.12518       	84.96714       	85.35185       	85.076         	85.68668       	85.58282       	85.19998       	
84.3514        	84.322136      	84.22704       	83.75194       	84.41863       	83.97405       	83.75859       	83.875885      	84.44847       	83.99262       	83.590126      	84.26727       	84.209656      	84.14859       	84.25196       	84.396385      	84.05789       	83.52062       	83.901215      	83.78846       	83.855385      	83.4262        	83.485855      	84.099594      	84.15869       	84.15018       	84.0576        	83.755775      	84.39326       	83.98117       	84.17224       	83.89153       	83.92142       	84.07598       	83.97296       	83.82398       	84.306         	84.413         	84.36066       	87.62654       	81.28432       	75.418976      	71.28032       	71.434166      	70.821785      	71.13134       	71.47952       	71.533516      	71.262665      	71.876335      	71.95935       	71.89512       	71.767845      	71.97314       	71.94543       	72.43213       	72.43668       	72.39237       	72.35692       	72.806114      	72.93815       	72.867874      	73.37856       	73.209335      	72.87569       	73.68887       	73.238075      	73.24084       	74.07881       	72.90624       	73.18351       	71.962845      	73.44101       	72.99355       	72.22321       	72.44103       	72.734886      	73.89373       	77.92108       	83.988846      	84.584816      	84.39597       	84.13077       	84.71092       	84.14855       	84.27927       	84.17489       	84.12557       	84.46702       	84.84395       	84.28863       	84.22766       	85.14654       	84.47643       	85.36192       	85.35569       	84.97434       	85.70761       	85.936874      	85.40533       	
84.3136        	84.79226       	84.216835      	84.622375      	84.69191       	84.3281        	83.69853       	84.04817       	84.77814       	83.99976       	84.441444      	84.72598       	84.37845       	85.532555      	84.37865       	86.417366      	85.70716       	83.38421       	83.13648       	84.71217       	84.56353       	84.542946      	84.53562       	84.813736      	85.049545      	84.98682       	84.66942       	84.762245      	84.82418       	84.650826      	84.902565      	85.21242       	84.48518       	84.19215       	84.75285       	85.19018       	84.606026      	85.3003        	87.47806       	80.05472       	75.741585      	72.98469       	70.971664      	70.99751       	72.018974      	71.4586        	72.37292       	71.8537        	72.1722        	72.57748       	72.514824      	72.63987       	73.25347       	73.290344      	72.85367       	73.230804      	73.779564      	73.669         	73.50192       	73.44276       	73.8258        	73.83674       	74.07404       	74.090935      	73.82373       	74.31957       	74.33414       	73.976265      	74.04045       	73.883545      	73.80338       	73.50543       	73.450745      	72.99725       	72.31143       	72.06916       	72.416435      	73.66771       	78.97419       	83.343124      	85.40064       	84.25922       	84.45973       	84.823074      	84.44432       	84.19693       	84.96248       	84.413605      	85.43165       	85.219246      	84.404         	85.18253       	84.92924       	84.91579       	84.757484      	84.21472       	84.84226       	85.216736      	84.95326       	84.195816      	
84.750626      	85.140594      	84.855385      	84.48056       	84.98678       	84.72293       	84.98429       	84.93911       	84.57027       	84.678375      	84.85232       	84.59031       	85.14712       	84.82018       	83.98989       	85.93376       	85.636055      	83.10214       	84.161766      	85.09326       	85.337036      	84.8945        	85.831924      	85.50822       	84.767456      	85.08136       	85.68622       	85.31445       	85.30085       	85.88528       	85.2239        	85.90071       	85.678375      	85.26376       	85.36585       	85.65653       	85.89107       	85.0468        	88.69606       	81.0306        	76.043396      	74.01215       	72.44741       	71.850945      	71.87055       	72.56137       	72.968666      	73.37459       	73.549805      	73.46058       	74.19297       	74.06541       	73.41425       	75.289604      	74.15928       	74.00496       	73.78548       	74.6628        	74.26613       	74.40817       	74.92561       	74.75593       	74.91288       	74.4735        	75.03477       	74.93016       	74.848976      	74.76098       	74.9604        	75.09264       	74.81648       	74.6449        	74.605804      	74.33763       	73.95887       	73.42897       	73.06932       	73.60468       	74.834564      	82.98255       	85.429886      	85.07459       	85.14074       	85.05694       	85.32646       	84.59166       	85.6662        	85.06399       	85.03484       	85.09067       	84.85315       	85.64239       	85.770874      	84.927956      	87.05859       	85.86876       	85.85703       	86.01686       	86.67516       	85.79772       	
84.2905        	84.54828       	84.57679       	83.725204      	84.631485      	84.17334       	84.67818       	84.491135      	84.01387       	84.02223       	84.269745      	84.21093       	84.052704      	84.32635       	84.0847        	84.37442       	84.350555      	84.63195       	84.258644      	84.36989       	84.850586      	84.38743       	84.29694       	84.45082       	84.42262       	84.728745      	84.51584       	84.50383       	84.67425       	84.644035      	84.23017       	83.70741       	84.46994       	83.699066      	84.290054      	83.92478       	85.32357       	84.21047       	88.625656      	82.47684       	76.40555       	75.02392       	72.45075       	71.807236      	71.77696       	72.03118       	73.528435      	72.89525       	73.50212       	73.536026      	73.55965       	73.48176       	75.33985       	73.9085        	72.75081       	72.434105      	74.275505      	74.28423       	73.96579       	74.27389       	74.36912       	74.294395      	74.13144       	74.37915       	75.00114       	74.75941       	74.248634      	73.91933       	74.449425      	73.95986       	74.49028       	74.27819       	74.322845      	74.08683       	73.30393       	72.448616      	71.74556       	72.77999       	73.9546        	79.91428       	84.35667       	84.26254       	83.33903       	84.37145       	84.51645       	84.832214      	84.548004      	85.37804       	84.75643       	84.55508       	84.69272       	84.74032       	84.67833       	84.36938       	84.89653       	85.00298       	84.74868       	85.58826       	85.44968       	85.07614       	
84.86644       	84.29221       	83.996796      	84.390854      	84.197945      	84.47582       	84.43864       	84.06021       	84.58383       	84.392075      	84.324394      	84.61289       	84.291374      	84.97736       	85.02919       	84.565674      	84.43559       	84.65148       	84.66258       	84.59419       	84.746346      	84.77296       	84.30874       	84.94624       	84.51088       	84.718056      	84.25117       	84.56569       	84.869835      	85.61429       	84.50968       	84.45028       	85.2382        	84.355225      	85.30356       	85.05334       	86.21585       	85.81902       	88.79339       	87.655624      	80.10721       	77.25948       	74.82466       	72.03485       	72.09036       	72.442665      	73.91412       	72.782524      	74.022736      	73.65579       	73.51149       	74.16933       	73.68951       	73.72851       	74.44714       	74.32955       	73.36501       	74.83785       	73.618996      	73.67565       	74.75743       	73.92956       	74.12092       	74.79213       	74.01399       	73.17385       	74.79788       	74.41579       	74.30851       	74.38625       	73.890305      	74.160385      	73.765045      	73.52682       	73.51371       	72.63971       	72.0545        	72.19693       	72.71966       	78.30421       	84.91585       	84.55931       	84.19446       	84.050354      	84.23541       	84.48363       	84.77585       	85.70054       	84.42059       	84.51347       	85.122154      	85.06733       	84.73984       	85.2139        	84.9629        	85.563446      	85.26911       	85.576355      	85.928825      	85.18065       	
84.14269       	83.89696       	83.55605       	84.41309       	84.32514       	83.88334       	83.71891       	84.1561        	83.63923       	83.92778       	84.098015      	84.110825      	83.83424       	84.88664       	84.581215      	84.355415      	84.17614       	84.4211        	84.64962       	83.61958       	84.941635      	84.57823       	83.933044      	84.2311        	83.30441       	84.00496       	83.75218       	84.15763       	84.34373       	83.833145      	83.33295       	84.04189       	84.24264       	84.50676       	84.07039       	83.84744       	84.445816      	84.15512       	84.876144      	89.252945      	81.13795       	78.234535      	75.189156      	72.63215       	72.5065        	72.84732       	73.66383       	73.87004       	73.73118       	74.26625       	74.248055      	74.39318       	74.11956       	74.56267       	73.9799        	74.27439       	75.00324       	74.891365      	74.370674      	74.56531       	74.3469        	74.15372       	74.28956       	74.08196       	75.38698       	72.90902       	74.80758       	75.17991       	74.67596       	74.52868       	74.6231        	74.62669       	74.38968       	74.36645       	73.72834       	73.017334      	72.6873        	72.3541        	73.36322       	76.11472       	83.21875       	85.2283        	85.88698       	85.42303       	85.618614      	85.38243       	85.164246      	84.60719       	85.06931       	85.018135      	84.90181       	86.023094      	85.30977       	85.13093       	85.08826       	85.12897       	85.604774      	86.32105       	85.75086       	84.928635      	
84.24173       	84.67408       	84.35026       	84.39777       	84.357155      	84.510864      	84.92852       	84.55341       	84.93089       	85.35211       	86.639694      	84.177475      	79.999405      	79.98266       	81.71491       	83.86594       	83.393135      	83.97415       	83.42865       	83.3585        	83.35549       	83.98058       	84.00723       	84.23978       	83.552795      	84.24799       	84.14312       	84.349525      	84.15838       	84.02977       	84.34911       	84.42212       	84.23084       	83.981895      	84.444435      	84.102394      	84.69504       	84.13719       	84.48429       	89.495316      	82.31179       	77.77285       	76.354324      	73.57658       	72.148384      	73.47736       	73.83475       	74.03922       	74.20847       	75.06414       	74.59227       	72.9599        	74.531944      	74.104996      	74.03501       	74.69782       	74.36098       	74.43994       	74.42979       	74.59886       	74.472885      	75.03746       	74.19625       	74.58773       	74.5061        	74.778114      	74.51531       	75.198715      	74.028595      	74.00449       	74.26041       	74.32285       	73.862785      	74.023186      	73.332146      	72.58601       	72.04401       	72.75546       	74.00469       	76.53694       	81.87621       	85.04746       	84.866554      	84.384384      	84.7405        	85.12549       	84.70336       	84.89528       	85.32165       	85.44855       	84.72841       	86.032104      	84.93466       	84.76257       	85.44362       	85.59793       	85.59162       	86.41574       	86.590866      	86.02341       	
83.86913       	84.173676      	84.96626       	85.23195       	85.07285       	85.67816       	86.05321       	85.9114        	84.69168       	81.21694       	77.1973        	73.49172       	72.45106       	71.420525      	72.654976      	74.67733       	78.789665      	84.4102        	84.61314       	84.33638       	84.12607       	84.16096       	84.58663       	84.507286      	84.556816      	84.7892        	84.87678       	84.506226      	84.54059       	84.36511       	84.40784       	84.43038       	84.56737       	85.31614       	84.96542       	85.15248       	84.94213       	85.69669       	85.56504       	88.93792       	82.40544       	78.59646       	76.51873       	74.54745       	72.19284       	73.243904      	73.00435       	73.377304      	73.69885       	74.831825      	74.03254       	74.17767       	74.6981        	74.90136       	75.04863       	74.95635       	74.91702       	74.589264      	74.66294       	74.86466       	74.54689       	74.484604      	74.59214       	75.07791       	75.051796      	75.779915      	75.43384       	74.25639       	75.02175       	74.93645       	74.45267       	74.76344       	73.93934       	74.03439       	73.91459       	73.29337       	73.13635       	72.34315       	72.87336       	74.03911       	79.78598       	85.074326      	84.35721       	84.167496      	84.841156      	84.358246      	84.54892       	84.87388       	84.70177       	85.4576        	86.009995      	85.02208       	84.70715       	84.29776       	85.10431       	84.85063       	85.45044       	85.66407       	85.91097       	85.40338       	
84.36571       	84.12893       	87.34452       	85.808525      	79.70751       	77.01563       	73.768196      	73.89404       	73.659         	72.1909        	71.417114      	71.22599       	70.96288       	70.51132       	71.61079       	71.90966       	75.29967       	84.12554       	85.001205      	84.511154      	84.714966      	84.58743       	84.59886       	84.72942       	84.77658       	85.04453       	85.05955       	84.471115      	84.99923       	84.84889       	85.9301        	85.355484      	85.43848       	85.14362       	85.46218       	85.789085      	86.05147       	86.0993        	86.67076       	87.29788       	86.53321       	80.4235        	77.567444      	74.915375      	73.74431       	73.063866      	74.02418       	74.39115       	74.51175       	75.13435       	74.944725      	74.93176       	74.59054       	75.524605      	74.61507       	74.75207       	74.882355      	74.611084      	75.004845      	74.69073       	74.52911       	74.56855       	74.84994       	74.60864       	74.86246       	74.68382       	74.35514       	75.024765      	74.75012       	75.02753       	74.61794       	74.15975       	74.22989       	73.92664       	74.00002       	73.98795       	73.1386        	71.77832       	73.01773       	73.41712       	77.27995       	84.53867       	85.33387       	84.86014       	84.95771       	85.200035      	85.33556       	84.98866       	84.904205      	85.65384       	85.22104       	85.61106       	85.66761       	85.54059       	85.38632       	85.858376      	86.68021       	87.35132       	87.30127       	86.57536       	
78.361595      	78.137115      	76.211         	74.1017        	72.63482       	71.191246      	69.933205      	71.370544      	71.27389       	70.449646      	71.503975      	71.596176      	71.154915      	69.882706      	70.52906       	71.04707       	72.24196       	80.49932       	84.49977       	85.13096       	84.719246      	84.43334       	84.31481       	84.28242       	84.637924      	84.96023       	84.74615       	85.16067       	84.211975      	84.19192       	84.99606       	84.81169       	84.99242       	84.67311       	84.59717       	85.227554      	84.41799       	85.421036      	86.027885      	85.56771       	89.35896       	83.05913       	79.26128       	75.74832       	73.56248       	72.71436       	73.14467       	73.78687       	73.85783       	75.09424       	75.37107       	73.89186       	73.7834        	75.19991       	74.001396      	73.16422       	74.631256      	74.76315       	74.36258       	74.90811       	74.65226       	74.85027       	75.48204       	74.897804      	75.01032       	74.26086       	74.52925       	75.313065      	74.7152        	74.65876       	74.99674       	74.38372       	74.19285       	73.702255      	73.81497       	73.36395       	73.21333       	72.11394       	72.13348       	72.08807       	75.91068       	82.55616       	85.13733       	84.74785       	84.08743       	85.27715       	84.87876       	84.5941        	84.40907       	84.79143       	84.29099       	84.62259       	85.44967       	85.26572       	85.30302       	85.95038       	85.720146      	86.151764      	86.22444       	85.50452       	
