# www.neaspec.com
# Scan:	 	Whitelight Imaging
# Project:	 	20251007_PS
# Description:	 	
# Date:	 	10/07/2025 13:44:09
# Scanner Center Position (X, Y):	[µm]	49.99	50.01	 
# Rotation:	[°]	0	 	 
# Scan Area (X, Y, Z):	[µm]	5.000	5.000	0.000
# Pixel Area (X, Y, Z):	[px]	100	100	1
# Interferometer Center/Distance:	[µm]	546.342	0.000	 
# Averaging:	 	1	 	 
# Integration time:	[ms]	5	 	 
# Wavenumber Scaling:	 	1.000000	 	 
# Laser Source:	 	4.5-15 µm nano-FTIR laser
# Detector:	 	R
# Target Wavelength:	[µm]	7.502	 	 
# Demodulation Mode:	 	Fourier
# Tip Frequency:	[Hz]	241,340.500	 	 
# Tip Amplitude:	[mV]	45.700	 	 
# Tapping Amplitude:	[nm]	76.624	 	 
# Modulation Frequency:	[Hz]	0.000	 	 
# Modulation Amplitude:	[mV]	0.000	 	 
# Modulation Offset:	[mV]	0.000	 	 
# Setpoint:	[%]	79.75	 	 
# Regulator (P, I, D):	 	4.206850	8.625812	1.000000
# Tip Potential:	[mV]	0.000	 	 
# M1A Scaling:	[nm/V]	0.426	 	 
# M1A Cantilever Factor:	 	1,000	 	 
# Q-Factor:	 	487.4	 	 
# Version:	 	2.1.11536.0
1140.5881      	1140.5792      	1140.6619      	1140.5533      	1140.631       	1140.6029      	1140.6116      	1140.5646      	1140.6062      	1140.5708      	1140.5497      	1140.5841      	1140.594       	1140.6052      	1140.6117      	1140.5591      	1140.1919      	1140.2506      	1140.3798      	1140.4089      	1140.595       	1140.5768      	1140.5945      	1140.5364      	1140.5848      	1140.5667      	1140.6128      	1140.4569      	1140.5697      	1140.737       	1140.5087      	1140.5519      	1140.6337      	1140.5927      	1140.6394      	1140.6038      	1140.4865      	1140.5769      	1140.5005      	1140.627       	1140.527       	1140.3882      	1140.6193      	1140.7101      	1140.575       	1140.5985      	1140.6584      	1140.5162      	1140.5474      	1140.5255      	1140.5251      	1140.5653      	1140.5826      	1140.5559      	1140.5461      	1140.5498      	1140.5535      	1140.5618      	1140.5581      	1140.6093      	1140.513       	1140.5596      	1140.5913      	1140.5681      	1140.535       	1140.577       	1140.5796      	1140.5858      	1140.5627      	1140.5505      	1140.6189      	1140.5903      	1140.6343      	1140.6118      	1140.6167      	1140.6099      	1140.5725      	1140.6223      	1140.6415      	1140.5867      	1140.6355      	1140.6965      	1140.6823      	1140.6504      	1140.7465      	1140.734       	1140.7106      	1140.7069      	1140.8064      	1140.7399      	1140.7352      	1140.7991      	1140.7748      	1140.8104      	1140.8062      	1140.8143      	1140.8267      	1140.8223      	1140.797       	1140.7833      	
1140.6726      	1140.6199      	1140.5702      	1140.6282      	1140.5754      	1140.5355      	1140.5712      	1140.5613      	1140.5249      	1140.5647      	1140.4763      	1140.4955      	1140.5583      	1140.5242      	1140.5244      	1140.5331      	1140.0553      	1140.2173      	1140.2706      	1140.3582      	1140.4553      	1140.5087      	1140.4916      	1140.6075      	1140.5333      	1140.5304      	1140.4368      	1140.5669      	1140.4885      	1140.5128      	1140.5505      	1140.641       	1140.3427      	1140.6383      	1140.493       	1140.6157      	1140.4507      	1140.739       	1140.3107      	1140.644       	1140.5769      	1140.7134      	1140.5286      	1140.589       	1140.524       	1140.4896      	1140.5907      	1140.4927      	1140.477       	1140.5214      	1140.4467      	1140.5253      	1140.5214      	1140.5641      	1140.543       	1140.5559      	1140.4934      	1140.552       	1140.5359      	1140.486       	1140.5371      	1140.515       	1140.5568      	1140.5449      	1140.5386      	1140.4513      	1140.5533      	1140.4397      	1140.4358      	1140.5115      	1140.4775      	1140.4387      	1140.4459      	1140.4802      	1140.4805      	1140.5065      	1140.4795      	1140.5487      	1140.455       	1140.543       	1140.5239      	1140.5278      	1140.5005      	1140.5409      	1140.6074      	1140.5892      	1140.672       	1140.5819      	1140.6606      	1140.6458      	1140.7157      	1140.6622      	1140.651       	1140.7332      	1140.7004      	1140.6918      	1140.6624      	1140.6871      	1140.5782      	1140.6753      	
1140.3622      	1140.3973      	1140.4148      	1140.314       	1140.3601      	1140.3702      	1140.3481      	1140.3303      	1140.3737      	1140.4165      	1140.3296      	1140.3948      	1140.4186      	1140.231       	1140.2355      	1140.4021      	1139.8562      	1140.0198      	1140.0435      	1140.1625      	1140.1833      	1140.3146      	1140.3273      	1140.2759      	1140.3645      	1140.2682      	1140.3268      	1140.4042      	1140.379       	1140.3206      	1140.2339      	1140.414       	1140.2642      	1140.228       	1140.3671      	1140.3926      	1140.2726      	1140.386       	1140.3795      	1140.3207      	1140.291       	1140.3589      	1140.2083      	1140.2552      	1140.3038      	1140.2135      	1140.2936      	1140.2488      	1140.2482      	1140.2401      	1140.2882      	1140.2755      	1140.3273      	1140.2683      	1140.298       	1140.2882      	1140.3318      	1140.2821      	1140.2318      	1140.2925      	1140.2961      	1140.2742      	1140.2823      	1140.299       	1140.304       	1140.3292      	1140.3173      	1140.2876      	1140.3413      	1140.2616      	1140.3253      	1140.3486      	1140.2952      	1140.2952      	1140.3137      	1140.3435      	1140.4314      	1140.3921      	1140.3677      	1140.3538      	1140.378       	1140.3615      	1140.3743      	1140.4337      	1140.411       	1140.4124      	1140.4327      	1140.47        	1140.4724      	1140.5027      	1140.5308      	1140.4685      	1140.5265      	1140.4883      	1140.631       	1140.532       	1140.5636      	1140.4557      	1140.3615      	1140.4669      	
1140.4591      	1140.44        	1140.4471      	1140.378       	1140.4895      	1140.4021      	1140.3604      	1140.4376      	1140.361       	1140.4114      	1140.4178      	1140.3849      	1140.3861      	1140.3186      	1140.3391      	1140.4783      	1140.0413      	1139.9738      	1140.2135      	1140.3201      	1140.3202      	1140.2661      	1140.3104      	1140.3978      	1140.4677      	1140.3884      	1140.3214      	1140.4209      	1140.4012      	1140.3464      	1140.3331      	1140.4655      	1140.3602      	1140.4968      	1140.3778      	1140.3613      	1140.4087      	1140.3427      	1140.1947      	1140.3497      	1140.3245      	1140.2804      	1140.3251      	1140.2803      	1140.262       	1140.2938      	1140.2921      	1140.2621      	1140.3132      	1140.2461      	1140.269       	1140.2446      	1140.3369      	1140.2351      	1140.3519      	1140.2777      	1140.3307      	1140.363       	1140.2483      	1140.3203      	1140.3335      	1140.2699      	1140.2982      	1140.2734      	1140.2712      	1140.3094      	1140.2878      	1140.3134      	1140.2815      	1140.3341      	1140.3396      	1140.3677      	1140.3817      	1140.3622      	1140.3481      	1140.334       	1140.3834      	1140.2991      	1140.3844      	1140.3743      	1140.3201      	1140.408       	1140.3445      	1140.3966      	1140.4132      	1140.3937      	1140.4437      	1140.5037      	1140.49        	1140.4851      	1140.451       	1140.4551      	1140.5122      	1140.4957      	1140.4852      	1140.5819      	1140.5002      	1140.563       	1140.5322      	1140.414       	
1140.6667      	1140.6934      	1140.7186      	1140.7297      	1140.6611      	1140.6912      	1140.6704      	1140.6298      	1140.696       	1140.6819      	1140.6288      	1140.612       	1140.6298      	1140.7026      	1140.6954      	1140.6727      	1140.4849      	1140.4008      	1140.538       	1140.4425      	1140.5023      	1140.5665      	1140.6257      	1140.5878      	1140.5754      	1140.759       	1140.7073      	1140.6704      	1140.6503      	1140.8771      	1140.6956      	1140.637       	1140.7043      	1140.6102      	1140.6359      	1140.6323      	1140.6229      	1140.6278      	1140.644       	1140.5969      	1140.5942      	1140.5884      	1140.5714      	1140.6255      	1140.5852      	1140.6013      	1140.5872      	1140.5614      	1140.6282      	1140.5526      	1140.628       	1140.5853      	1140.5271      	1140.5885      	1140.6445      	1140.5691      	1140.5983      	1140.6621      	1140.5835      	1140.6091      	1140.6057      	1140.7023      	1140.5874      	1140.646       	1140.6296      	1140.6046      	1140.629       	1140.658       	1140.642       	1140.6307      	1140.6017      	1140.6864      	1140.6089      	1140.6945      	1140.6322      	1140.6194      	1140.6718      	1140.6678      	1140.6619      	1140.6893      	1140.6294      	1140.6499      	1140.6818      	1140.726       	1140.727       	1140.7284      	1140.7128      	1140.8146      	1140.7416      	1140.8092      	1140.7394      	1140.7563      	1140.7839      	1140.7542      	1140.8024      	1140.7994      	1140.915       	1140.734       	1140.6005      	1140.7087      	
1140.7091      	1140.7286      	1140.6367      	1140.6952      	1140.6538      	1140.6366      	1140.6298      	1140.6863      	1140.6503      	1140.5895      	1140.6342      	1140.6464      	1140.6233      	1140.6307      	1140.5908      	1140.6318      	1140.6184      	1140.5392      	1140.4373      	1140.4146      	1140.52        	1140.6484      	1140.5056      	1140.6204      	1140.6798      	1140.8767      	1140.6512      	1140.6405      	1140.6667      	1140.7048      	1140.67        	1140.6652      	1140.6991      	1140.6938      	1140.5939      	1140.6823      	1140.6296      	1140.6421      	1140.6444      	1140.6697      	1140.6583      	1140.6085      	1140.6858      	1140.6621      	1140.6586      	1140.6044      	1140.6385      	1140.693       	1140.6533      	1140.7079      	1140.6353      	1140.6555      	1140.6503      	1140.6653      	1140.6691      	1140.6643      	1140.6556      	1140.7246      	1140.6438      	1140.7114      	1140.6952      	1140.6974      	1140.6633      	1140.7196      	1140.7117      	1140.7412      	1140.7196      	1140.7037      	1140.7281      	1140.7664      	1140.7047      	1140.7167      	1140.7585      	1140.7313      	1140.7688      	1140.7787      	1140.7836      	1140.7622      	1140.8003      	1140.784       	1140.7961      	1140.8165      	1140.8325      	1140.8752      	1140.8274      	1140.8662      	1140.8494      	1140.9622      	1140.8987      	1140.9431      	1140.9214      	1140.977       	1140.8635      	1140.9185      	1140.9581      	1141.1112      	1140.7626      	1140.8145      	1141.0157      	1140.9891      	
1140.5956      	1140.5265      	1140.4894      	1140.5118      	1140.4619      	1140.4843      	1140.4445      	1140.4982      	1140.4695      	1140.4069      	1140.445       	1140.4249      	1140.41        	1140.4346      	1140.4158      	1140.5417      	1140.329       	1140.4471      	1140.6118      	1140.3352      	1140.4277      	1140.4333      	1140.455       	1140.4929      	1140.4633      	1140.5065      	1140.4749      	1140.4646      	1140.5359      	1140.4586      	1140.4504      	1140.5765      	1140.4484      	1140.2559      	1140.4257      	1140.5659      	1140.4832      	1140.4175      	1140.4677      	1140.4388      	1140.4734      	1140.4093      	1140.4535      	1140.4861      	1140.4263      	1140.429       	1140.4344      	1140.4901      	1140.4651      	1140.5112      	1140.4983      	1140.5017      	1140.489       	1140.4812      	1140.5072      	1140.5665      	1140.4943      	1140.4878      	1140.53        	1140.5294      	1140.552       	1140.4846      	1140.5881      	1140.5302      	1140.6274      	1140.5378      	1140.5455      	1140.5757      	1140.6123      	1140.6046      	1140.6024      	1140.626       	1140.6179      	1140.6394      	1140.648       	1140.6208      	1140.6775      	1140.6993      	1140.6077      	1140.6836      	1140.6606      	1140.7189      	1140.7303      	1140.719       	1140.7498      	1140.7567      	1140.7424      	1140.8289      	1140.777       	1140.7637      	1140.8507      	1140.8054      	1140.8125      	1140.91        	1140.7322      	1140.6405      	1140.7811      	1140.7545      	1140.7524      	1140.8313      	
1140.3076      	1140.3317      	1140.3905      	1140.2434      	1140.3774      	1140.2688      	1140.4224      	1140.204       	1140.2322      	1140.1993      	1140.3713      	1140.2782      	1140.232       	1140.3328      	1140.2649      	1140.3572      	1140.2207      	1140.2179      	1140.427       	1140.2366      	1140.3068      	1140.3134      	1140.2703      	1140.2904      	1140.3495      	1140.2999      	1140.3165      	1140.3671      	1140.3682      	1140.344       	1140.414       	1140.3314      	1140.3103      	1140.2617      	1140.2743      	1140.4286      	1140.2747      	1140.28        	1140.311       	1140.2903      	1140.2961      	1140.2651      	1140.311       	1140.2761      	1140.2515      	1140.3303      	1140.2717      	1140.2576      	1140.3151      	1140.3254      	1140.2756      	1140.3251      	1140.3191      	1140.3126      	1140.3085      	1140.3209      	1140.3322      	1140.332       	1140.3506      	1140.3312      	1140.335       	1140.3342      	1140.3202      	1140.3176      	1140.3456      	1140.3942      	1140.3497      	1140.3265      	1140.3196      	1140.3567      	1140.3314      	1140.3813      	1140.2756      	1140.4003      	1140.3282      	1140.3438      	1140.4194      	1140.3203      	1140.3839      	1140.386       	1140.3926      	1140.4156      	1140.4387      	1140.4146      	1140.4398      	1140.4257      	1140.4946      	1140.4431      	1140.4882      	1140.4823      	1140.4874      	1140.52        	1140.4899      	1140.5219      	1140.5474      	1140.3649      	1140.2507      	1140.4968      	1140.5985      	1140.5538      	
1140.3649      	1140.4023      	1140.2897      	1140.3004      	1140.3413      	1140.2878      	1140.2976      	1140.3179      	1140.3253      	1140.2477      	1140.2593      	1140.2844      	1140.1843      	1140.2598      	1140.246       	1140.3179      	1140.2195      	1140.2703      	1140.2465      	1140.2303      	1140.3243      	1140.2524      	1140.2777      	1140.259       	1140.3062      	1140.2343      	1140.336       	1140.2751      	1140.3147      	1140.3038      	1140.3074      	1140.2831      	1140.2927      	1140.2731      	1140.271       	1140.2688      	1140.2654      	1140.3137      	1140.3236      	1140.2404      	1140.2838      	1140.2251      	1140.3022      	1140.2247      	1140.4456      	1140.1141      	1140.253       	1140.3418      	1140.3069      	1140.2538      	1140.2924      	1140.2921      	1140.3107      	1140.3447      	1140.2615      	1140.3696      	1140.3135      	1140.3427      	1140.3577      	1140.3284      	1140.3335      	1140.376       	1140.309       	1140.3245      	1140.4392      	1140.252       	1140.3381      	1140.3838      	1140.3623      	1140.3009      	1140.3337      	1140.3585      	1140.3296      	1140.4146      	1140.332       	1140.3945      	1140.4026      	1140.3834      	1140.3944      	1140.4637      	1140.4548      	1140.3765      	1140.488       	1140.5042      	1140.4374      	1140.6559      	1140.3887      	1140.4917      	1140.5615      	1140.5093      	1140.5188      	1140.494       	1140.6606      	1140.4281      	1140.5562      	1140.488       	1140.2745      	1140.5116      	1140.5549      	1140.552       	
1140.5385      	1140.4092      	1140.5415      	1140.446       	1140.4166      	1140.456       	1140.4003      	1140.4138      	1140.4562      	1140.3948      	1140.4354      	1140.4167      	1140.4327      	1140.4032      	1140.3583      	1140.454       	1140.4045      	1140.4204      	1140.4211      	1140.4683      	1140.4879      	1140.4136      	1140.3773      	1140.3861      	1140.5057      	1140.479       	1140.4612      	1140.4047      	1140.497       	1140.386       	1140.4253      	1140.4474      	1140.444       	1140.5105      	1140.3436      	1140.442       	1140.4583      	1140.4274      	1140.4465      	1140.398       	1140.4204      	1140.4858      	1140.4288      	1140.4442      	1140.5841      	1140.2799      	1140.3933      	1140.5048      	1140.6124      	1140.5183      	1140.3987      	1140.4481      	1140.5402      	1140.4724      	1140.4711      	1140.5157      	1140.5416      	1140.5487      	1140.5011      	1140.5095      	1140.5642      	1140.5095      	1140.4386      	1140.5897      	1140.5039      	1140.5103      	1140.5262      	1140.5032      	1140.5553      	1140.5284      	1140.5422      	1140.5294      	1140.5015      	1140.575       	1140.512       	1140.5521      	1140.5756      	1140.5544      	1140.5775      	1140.5879      	1140.6202      	1140.6108      	1140.6276      	1140.6265      	1140.6217      	1140.6105      	1140.6761      	1140.6741      	1140.5919      	1140.6389      	1140.632       	1140.6482      	1140.6251      	1140.6228      	1140.6007      	1140.6042      	1140.722       	1140.451       	1140.2573      	1140.3124      	
1140.9106      	1140.9181      	1140.8745      	1140.8412      	1140.9229      	1140.8778      	1140.8162      	1140.8456      	1140.8967      	1140.821       	1140.8928      	1140.8553      	1140.878       	1140.8298      	1140.8712      	1140.8861      	1140.866       	1140.9043      	1140.8813      	1140.844       	1140.8943      	1140.8362      	1140.8137      	1140.8898      	1140.9174      	1140.8438      	1140.8922      	1140.9126      	1140.8628      	1140.8489      	1140.8856      	1140.8425      	1140.8577      	1140.8584      	1140.8335      	1140.8665      	1140.8446      	1140.8309      	1140.8358      	1140.8553      	1140.8247      	1140.8358      	1140.8066      	1140.8427      	1140.8484      	1140.7991      	1140.8673      	1140.8744      	1140.9049      	1140.8671      	1140.9119      	1140.9021      	1140.9073      	1140.9382      	1140.9132      	1140.8982      	1140.9302      	1140.931       	1140.9192      	1141.0385      	1140.7075      	1140.7969      	1140.9384      	1141.0704      	1140.9972      	1140.966       	1140.9575      	1140.9575      	1140.9553      	1140.9159      	1140.9376      	1140.9368      	1140.9276      	1140.9608      	1140.8374      	1140.935       	1140.9832      	1140.9651      	1141.0208      	1141.0133      	1140.992       	1141.0388      	1140.9735      	1141.0033      	1140.9977      	1141.0338      	1140.9701      	1141.0262      	1140.9526      	1140.9199      	1141.0499      	1140.9172      	1141.0392      	1141.0027      	1141.0096      	1140.9954      	1140.966       	1140.7737      	1140.7461      	1140.7914      	
1141.0385      	1141.0118      	1141.112       	1141.0017      	1140.996       	1141.0077      	1141.0001      	1141.049       	1141.0471      	1141.0887      	1140.9497      	1141.0272      	1141.0449      	1141.0493      	1140.952       	1141.0409      	1141.0477      	1141.0743      	1141.0223      	1141.0193      	1141.0175      	1141.05        	1141.0833      	1141.0813      	1141.0125      	1141.0602      	1141.1198      	1141.0466      	1141.0867      	1141.1284      	1141.0471      	1141.1265      	1141.0935      	1141.0942      	1141.1062      	1141.0376      	1141.1393      	1140.9895      	1141.0735      	1141.0005      	1141.0756      	1141.0458      	1141.0962      	1141.0269      	1141.0991      	1141.0157      	1141.11        	1141.0571      	1141.049       	1141.1658      	1141.0763      	1141.1154      	1141.1665      	1141.1239      	1141.138       	1141.2391      	1141.1731      	1141.2078      	1141.1311      	1141.1937      	1141.1431      	1141.256       	1141.1405      	1141.2123      	1141.1797      	1141.2488      	1141.2103      	1141.1724      	1141.1914      	1141.2122      	1141.1913      	1141.2113      	1141.2131      	1141.2078      	1141.2327      	1141.2668      	1141.3376      	1141.2123      	1141.345       	1141.2059      	1141.3251      	1141.2675      	1141.2421      	1141.2908      	1141.2894      	1141.2863      	1141.4069      	1141.3176      	1141.1993      	1141.2214      	1141.3148      	1141.4244      	1141.329       	1141.3127      	1141.2312      	1141.2863      	1141.2488      	1141.1659      	1141.2439      	1141.201       	
1140.7955      	1140.7284      	1140.7251      	1140.7471      	1140.7351      	1140.7186      	1140.7753      	1140.7417      	1140.7137      	1140.7317      	1140.7588      	1140.7139      	1140.7985      	1140.7258      	1140.722       	1140.7957      	1140.7374      	1140.7928      	1140.8032      	1140.8495      	1140.8507      	1140.8372      	1140.8917      	1140.8381      	1140.8899      	1140.9368      	1140.8918      	1140.8723      	1140.8828      	1140.9169      	1140.9178      	1140.9025      	1140.9088      	1140.9393      	1140.9165      	1140.8927      	1140.9536      	1140.9431      	1140.8984      	1140.9741      	1140.9476      	1141.0015      	1141.0457      	1141.0042      	1141.0868      	1140.9602      	1141.1066      	1141.1069      	1141.0712      	1141.1353      	1141.1179      	1141.12        	1141.1453      	1141.1974      	1141.202       	1141.2472      	1141.2507      	1141.3118      	1141.2434      	1141.2319      	1141.3436      	1141.256       	1141.2902      	1141.3169      	1141.3011      	1141.3375      	1141.3333      	1141.3579      	1141.3618      	1141.3455      	1141.3947      	1141.3794      	1141.4274      	1141.2378      	1141.3601      	1141.42        	1141.3417      	1141.3351      	1141.349       	1141.4103      	1141.3091      	1141.3555      	1141.3188      	1141.3579      	1141.3331      	1141.3119      	1141.2932      	1141.3281      	1141.2561      	1141.2948      	1141.3154      	1141.2572      	1141.2896      	1141.2267      	1141.2092      	1141.3308      	1141.1925      	1140.9039      	1140.9944      	1141.1062      	
1140.4889      	1140.4933      	1140.5043      	1140.4977      	1140.4982      	1140.4204      	1140.5471      	1140.4689      	1140.5554      	1140.4594      	1140.4808      	1140.5054      	1140.5486      	1140.5126      	1140.5315      	1140.5668      	1140.5825      	1140.5138      	1140.5668      	1140.5284      	1140.5798      	1140.4794      	1140.5729      	1140.5627      	1140.5884      	1140.5813      	1140.5513      	1140.5817      	1140.5735      	1140.5369      	1140.6096      	1140.5624      	1140.55        	1140.596       	1140.5665      	1140.5554      	1140.5627      	1140.5455      	1140.6049      	1140.5812      	1140.6018      	1140.6117      	1140.6173      	1140.7284      	1140.4722      	1140.5084      	1140.6716      	1140.5988      	1140.6476      	1140.6659      	1140.6876      	1140.6869      	1140.6731      	1140.7615      	1140.7294      	1140.7145      	1140.7926      	1140.754       	1140.7408      	1140.772       	1140.7463      	1140.7545      	1140.7599      	1140.7754      	1140.7944      	1140.7694      	1140.8296      	1140.8103      	1140.7823      	1140.8365      	1140.7761      	1140.8245      	1140.7892      	1140.8451      	1140.8423      	1140.8605      	1140.9089      	1140.8567      	1140.8589      	1140.8728      	1140.9011      	1140.9253      	1140.9539      	1140.9119      	1140.8851      	1140.9025      	1140.9286      	1140.9719      	1140.915       	1140.934       	1140.9159      	1140.9276      	1140.9281      	1140.878       	1140.9016      	1140.8989      	1140.8976      	1140.8651      	1140.859       	1140.7222      	
1140.3472      	1140.3931      	1140.3971      	1140.344       	1140.392       	1140.392       	1140.355       	1140.3702      	1140.3593      	1140.3473      	1140.3942      	1140.4194      	1140.4009      	1140.3944      	1140.4635      	1140.3898      	1140.4452      	1140.3859      	1140.4625      	1140.4246      	1140.4587      	1140.3589      	1140.4122      	1140.4396      	1140.4132      	1140.4738      	1140.4314      	1140.4562      	1140.421       	1140.4331      	1140.4617      	1140.437       	1140.4421      	1140.4298      	1140.4237      	1140.4889      	1140.4208      	1140.5061      	1140.5109      	1140.4863      	1140.5387      	1140.5237      	1140.5131      	1140.4985      	1140.5859      	1140.5697      	1140.5553      	1140.5334      	1140.5929      	1140.592       	1140.5917      	1140.5463      	1140.6105      	1140.5784      	1140.5631      	1140.6089      	1140.6564      	1140.5773      	1140.4751      	1140.6184      	1140.7213      	1140.629       	1140.5977      	1140.6537      	1140.6564      	1140.5853      	1140.6102      	1140.6198      	1140.5497      	1140.6501      	1140.6418      	1140.6077      	1140.6573      	1140.667       	1140.6962      	1140.6423      	1140.672       	1140.7192      	1140.7588      	1140.694       	1140.6772      	1140.7097      	1140.7593      	1140.7397      	1140.735       	1140.6896      	1140.6808      	1140.7385      	1140.7161      	1140.7114      	1140.6962      	1140.6976      	1140.7277      	1140.6105      	1140.633       	1140.6901      	1140.5503      	1139.8397      	1139.9392      	1140.2203      	
1140.4425      	1140.4233      	1140.3999      	1140.4305      	1140.4432      	1140.4336      	1140.4559      	1140.4576      	1140.4481      	1140.4663      	1140.5098      	1140.4191      	1140.4968      	1140.4502      	1140.4946      	1140.5239      	1140.4319      	1140.507       	1140.5         	1140.5125      	1140.4865      	1140.4248      	1140.4724      	1140.5009      	1140.512       	1140.4272      	1140.5042      	1140.4883      	1140.478       	1140.5282      	1140.5105      	1140.4558      	1140.519       	1140.4774      	1140.5044      	1140.4788      	1140.4766      	1140.4967      	1140.4777      	1140.5048      	1140.469       	1140.498       	1140.504       	1140.4979      	1140.5109      	1140.504       	1140.5167      	1140.5632      	1140.541       	1140.5557      	1140.5402      	1140.5835      	1140.5781      	1140.618       	1140.5848      	1140.6202      	1140.6586      	1140.5663      	1140.6318      	1140.5927      	1140.5719      	1140.5994      	1140.6008      	1140.6472      	1140.5929      	1140.5999      	1140.5638      	1140.5803      	1140.6104      	1140.6296      	1140.6171      	1140.6338      	1140.6072      	1140.6349      	1140.6091      	1140.6176      	1140.6667      	1140.6125      	1140.6428      	1140.6525      	1140.6014      	1140.6515      	1140.6711      	1140.6431      	1140.67        	1140.6433      	1140.6267      	1140.6036      	1140.6238      	1140.8363      	1140.507       	1140.3772      	1140.5071      	1140.432       	1140.3729      	1140.3817      	1140.4519      	1140.2732      	1140.1501      	1140.2727      	
1140.6825      	1140.6758      	1140.6675      	1140.6438      	1140.6013      	1140.5994      	1140.6208      	1140.6544      	1140.6993      	1140.6013      	1140.673       	1140.6395      	1140.6571      	1140.6437      	1140.6129      	1140.6667      	1140.6849      	1140.6832      	1140.6661      	1140.7087      	1140.6761      	1140.7437      	1140.64        	1140.6663      	1140.6329      	1140.7174      	1140.7557      	1140.6741      	1140.6543      	1140.6638      	1140.7063      	1140.6683      	1140.7235      	1140.6649      	1140.7125      	1140.666       	1140.7462      	1140.7228      	1140.6573      	1140.722       	1140.7264      	1140.7783      	1140.6704      	1140.7296      	1140.758       	1140.7134      	1140.759       	1140.8278      	1140.8035      	1140.7997      	1140.7776      	1140.7687      	1140.7775      	1140.789       	1140.7834      	1140.7905      	1140.975       	1140.8284      	1140.8689      	1140.8358      	1140.8259      	1140.8733      	1140.8683      	1140.8898      	1140.8713      	1140.8906      	1140.9243      	1140.8674      	1140.9336      	1140.9384      	1140.8577      	1140.8544      	1140.9327      	1140.8264      	1140.829       	1140.9099      	1140.9049      	1140.8435      	1140.8761      	1140.879       	1140.9198      	1140.9089      	1140.8694      	1140.8525      	1140.8729      	1140.8978      	1140.9185      	1140.8774      	1140.5691      	1140.6309      	1140.6802      	1140.7292      	1140.7975      	1140.7571      	1140.7411      	1140.782       	1140.8094      	1140.7415      	1140.7347      	1140.6948      	
1140.5901      	1140.6298      	1140.5328      	1140.6146      	1140.5713      	1140.5636      	1140.612       	1140.6445      	1140.5652      	1140.6648      	1140.6191      	1140.6475      	1140.6407      	1140.6306      	1140.6588      	1140.6376      	1140.641       	1140.6888      	1140.6432      	1140.6547      	1140.6672      	1140.6483      	1140.6671      	1140.6616      	1140.6498      	1140.7211      	1140.6361      	1140.6882      	1140.6641      	1140.6597      	1140.7305      	1140.7136      	1140.729       	1140.7325      	1140.7156      	1140.7609      	1140.7573      	1140.7313      	1140.7312      	1140.7639      	1140.7516      	1140.7332      	1140.6989      	1140.8713      	1140.7687      	1140.8163      	1140.78        	1140.8257      	1140.804       	1140.8768      	1140.8589      	1140.8488      	1140.8839      	1140.8478      	1140.914       	1140.9167      	1140.8413      	1140.9891      	1140.852       	1140.8823      	1140.8976      	1140.8615      	1140.8011      	1140.8451      	1140.8314      	1140.8094      	1140.8365      	1140.8242      	1140.8298      	1140.815       	1140.8958      	1140.8635      	1140.9054      	1140.8801      	1140.8733      	1140.9028      	1140.8505      	1140.8446      	1140.8595      	1140.9381      	1140.8022      	1140.8416      	1140.9077      	1140.8224      	1140.8756      	1140.9758      	1140.455       	1140.4235      	1140.6654      	1140.7361      	1140.7394      	1140.7356      	1140.6595      	1140.6995      	1140.7944      	1140.7267      	1140.7546      	1140.6355      	1140.5812      	1140.6189      	
1140.5917      	1140.5919      	1140.5758      	1140.6339      	1140.5807      	1140.6272      	1140.572       	1140.6392      	1140.6443      	1140.6382      	1140.6287      	1140.6714      	1140.6459      	1140.6666      	1140.6821      	1140.6947      	1140.7034      	1140.7141      	1140.655       	1140.699       	1140.7112      	1140.7081      	1140.6674      	1140.7214      	1140.6835      	1140.671       	1140.6997      	1140.6786      	1140.7079      	1140.6968      	1140.7196      	1140.7065      	1140.6704      	1140.7036      	1140.7216      	1140.6897      	1140.7349      	1140.7267      	1140.7843      	1140.7202      	1140.768       	1140.7573      	1140.7074      	1140.7452      	1140.7937      	1140.7681      	1140.8119      	1140.8438      	1140.7988      	1140.779       	1140.8119      	1140.876       	1140.823       	1140.8162      	1140.8011      	1140.8524      	1140.8511      	1140.8545      	1140.8583      	1140.8585      	1140.87        	1140.8301      	1140.8431      	1140.8453      	1140.8339      	1140.9011      	1140.887       	1140.8503      	1140.8966      	1141.0044      	1140.9176      	1140.8198      	1140.8424      	1140.8939      	1140.822       	1140.8834      	1140.89        	1140.8397      	1140.9607      	1140.8208      	1140.7532      	1140.8679      	1140.8798      	1140.9965      	1140.783       	1140.4674      	1140.5278      	1140.6155      	1140.781       	1140.8069      	1140.7308      	1140.8179      	1140.741       	1140.7483      	1140.7501      	1140.7867      	1140.7461      	1140.6097      	1140.6501      	1140.6965      	
1140.5712      	1140.5519      	1140.6287      	1140.5973      	1140.549       	1140.6008      	1140.601       	1140.6088      	1140.6641      	1140.5918      	1140.6432      	1140.5962      	1140.6425      	1140.6232      	1140.6499      	1140.6249      	1140.6359      	1140.624       	1140.6738      	1140.6428      	1140.6494      	1140.6636      	1140.6426      	1140.667       	1140.5759      	1140.5775      	1140.661       	1140.5916      	1140.5718      	1140.6158      	1140.5739      	1140.613       	1140.591       	1140.5776      	1140.5852      	1140.6132      	1140.585       	1140.588       	1140.667       	1140.6251      	1140.6057      	1140.6389      	1140.5919      	1140.6495      	1140.6548      	1140.684       	1140.6744      	1140.7163      	1140.6705      	1140.7073      	1140.679       	1140.6958      	1140.744       	1140.7164      	1140.7039      	1140.6917      	1140.7181      	1140.6785      	1140.7101      	1140.6913      	1140.6886      	1140.6477      	1140.6627      	1140.6787      	1140.6709      	1140.7655      	1140.6302      	1140.7244      	1140.6814      	1140.696       	1140.6868      	1140.7019      	1140.6998      	1140.6869      	1140.6777      	1140.7454      	1140.7458      	1140.7179      	1140.7343      	1140.7039      	1140.7179      	1140.7397      	1140.6866      	1140.8875      	1140.1484      	1140.3093      	1140.4861      	1140.4916      	1140.6202      	1140.6261      	1140.5787      	1140.704       	1140.5801      	1140.7241      	1140.4502      	1140.5048      	1140.6854      	1140.5419      	1140.4348      	1140.5262      	
1140.6954      	1140.7096      	1140.7297      	1140.6643      	1140.6973      	1140.7126      	1140.6747      	1140.7047      	1140.7471      	1140.7587      	1140.7362      	1140.7596      	1140.7325      	1140.7994      	1140.7198      	1140.7721      	1140.7572      	1140.7537      	1140.7639      	1140.7583      	1140.7405      	1140.7384      	1140.7344      	1140.7336      	1140.7296      	1140.78        	1140.7295      	1140.775       	1140.7627      	1140.7339      	1140.7428      	1140.7247      	1140.8341      	1140.6646      	1140.7673      	1140.7999      	1140.8103      	1140.6982      	1140.8204      	1140.8273      	1140.7993      	1140.7625      	1140.8175      	1140.8103      	1140.7876      	1140.7712      	1140.804       	1140.8566      	1140.7792      	1140.8258      	1140.8184      	1140.7958      	1140.8423      	1140.7798      	1140.8702      	1140.8563      	1140.8635      	1140.8116      	1140.8821      	1140.8221      	1140.8502      	1140.8386      	1140.7936      	1140.8312      	1140.7433      	1140.779       	1140.7808      	1140.7734      	1140.7812      	1140.7799      	1140.8055      	1140.8323      	1140.8337      	1140.8596      	1140.88        	1140.8452      	1140.8164      	1140.8358      	1140.814       	1140.8315      	1140.8464      	1140.7524      	1140.7949      	1140.9338      	1140.3007      	1140.4257      	1140.4852      	1140.5391      	1140.6561      	1140.628       	1140.7057      	1140.6339      	1140.6143      	1140.783       	1140.4933      	1140.5826      	1140.6414      	1140.6134      	1140.5586      	1140.558       	
1140.9855      	1140.926       	1140.9725      	1140.9692      	1140.9761      	1141.0183      	1141.032       	1140.9884      	1141.0209      	1141.013       	1141.026       	1140.999       	1141.0002      	1141.0038      	1140.9922      	1141.0756      	1140.9918      	1141.0393      	1141.0548      	1140.9901      	1141.0435      	1140.9856      	1140.9819      	1140.9882      	1140.9767      	1140.993       	1140.9631      	1141.0315      	1140.9937      	1141.0311      	1141.0161      	1141.1018      	1140.9847      	1140.9272      	1140.968       	1141.0405      	1140.9856      	1141.0249      	1141.0327      	1141.0386      	1141.041       	1141.0358      	1141.0381      	1141.0247      	1141.0239      	1141.1235      	1140.9788      	1141.0496      	1141.0671      	1141.0193      	1141.0734      	1141.0579      	1141.0223      	1141.072       	1141.0697      	1141.0784      	1141.0425      	1141.051       	1141.0825      	1141.0833      	1141.0154      	1141.0682      	1141.0382      	1141.0403      	1141.0459      	1141.0255      	1141.043       	1141.0343      	1141.0665      	1141.021       	1141.0547      	1140.9878      	1141.0184      	1141.0226      	1141.0374      	1141.0564      	1141.0448      	1141.0012      	1141.0061      	1141.0443      	1141.061       	1141.052       	1141.0428      	1141.1487      	1140.7693      	1140.748       	1140.7201      	1140.7722      	1140.7578      	1140.9335      	1140.8838      	1140.9127      	1140.8601      	1140.8977      	1140.7498      	1140.9149      	1140.827       	1140.908       	1140.7782      	1140.7628      	
1141.3015      	1141.3503      	1141.3665      	1141.4071      	1141.2909      	1141.3317      	1141.3074      	1141.2943      	1141.3365      	1141.3593      	1141.3538      	1141.3687      	1141.3889      	1141.4318      	1141.4095      	1141.428       	1141.4614      	1141.4138      	1141.4296      	1141.4169      	1141.4154      	1141.4452      	1141.4165      	1141.4432      	1141.412       	1141.3973      	1141.4243      	1141.4255      	1141.3914      	1141.3964      	1141.471       	1141.4191      	1141.4437      	1141.4348      	1141.4021      	1141.4231      	1141.4722      	1141.4102      	1141.4042      	1141.4646      	1141.4021      	1141.4191      	1141.4271      	1141.4592      	1141.466       	1141.4237      	1141.4812      	1141.4574      	1141.5051      	1141.4884      	1141.4308      	1141.448       	1141.4388      	1141.4344      	1141.4197      	1141.4628      	1141.4067      	1141.4055      	1141.4344      	1141.4286      	1141.4473      	1141.4794      	1141.4226      	1141.3972      	1141.4224      	1141.4384      	1141.4193      	1141.3934      	1141.3837      	1141.4587      	1141.419       	1141.428       	1141.4602      	1141.4172      	1141.4448      	1141.4465      	1141.414       	1141.386       	1141.4194      	1141.3724      	1141.3579      	1141.364       	1141.3451      	1141.4054      	1141.2501      	1140.9539      	1141.0403      	1141.0425      	1141.1077      	1141.2404      	1141.1892      	1141.2738      	1141.2834      	1141.0647      	1141.0469      	1141.2502      	1141.281       	1141.1606      	1140.9863      	1140.8743      	
1141.5134      	1141.5266      	1141.4888      	1141.5375      	1141.4867      	1141.5396      	1141.4503      	1141.472       	1141.5447      	1141.4689      	1141.5082      	1141.5237      	1141.5192      	1141.5415      	1141.5114      	1141.5419      	1141.5109      	1141.5103      	1141.5187      	1141.4558      	1141.4987      	1141.4987      	1141.5034      	1141.4865      	1141.513       	1141.4622      	1141.4353      	1141.4431      	1141.4446      	1141.5033      	1141.4752      	1141.519       	1141.4718      	1141.5272      	1141.5161      	1141.4839      	1141.5264      	1141.5056      	1141.5116      	1141.5688      	1141.4856      	1141.5812      	1141.5747      	1141.5564      	1141.5123      	1141.5223      	1141.4861      	1141.5105      	1141.5695      	1141.5238      	1141.5582      	1141.5115      	1141.4827      	1141.528       	1141.5415      	1141.5114      	1141.4956      	1141.5714      	1141.5568      	1141.5497      	1141.5554      	1141.5265      	1141.513       	1141.5021      	1141.4926      	1141.507       	1141.5049      	1141.5027      	1141.4774      	1141.4446      	1141.469       	1141.5105      	1141.4861      	1141.5105      	1141.4858      	1141.4941      	1141.509       	1141.466       	1141.5125      	1141.4393      	1141.5056      	1141.4818      	1141.5046      	1141.4637      	1141.4507      	1141.051       	1141.1362      	1141.1866      	1141.2285      	1141.2964      	1141.425       	1141.3694      	1141.3627      	1141.2616      	1141.3934      	1141.3289      	1141.3497      	1141.3082      	1141.272       	1141.2747      	
1141.9438      	1141.906       	1141.9725      	1141.9348      	1141.918       	1141.9458      	1141.92        	1141.9733      	1141.8823      	1141.9377      	1141.9395      	1141.9602      	1141.9027      	1142.0012      	1141.9622      	1141.8918      	1141.974       	1141.9608      	1141.877       	1141.909       	1141.9554      	1141.9048      	1141.9377      	1141.9192      	1141.8806      	1141.8895      	1141.8433      	1141.8743      	1141.8904      	1141.9028      	1141.8887      	1141.9014      	1141.8892      	1141.9192      	1141.904       	1141.9739      	1141.9309      	1141.9875      	1141.9875      	1141.9706      	1141.9623      	1141.9591      	1141.9883      	1141.9153      	1141.9406      	1141.9165      	1141.9037      	1141.9031      	1141.9188      	1141.8978      	1141.8961      	1141.935       	1141.8821      	1142.0114      	1141.789       	1141.7065      	1141.6892      	1141.7211      	1141.8693      	1141.9897      	1141.9891      	1141.9823      	1141.8413      	1141.853       	1141.8419      	1141.8901      	1141.8403      	1141.864       	1141.8729      	1141.8726      	1141.8578      	1141.895       	1141.8524      	1141.854       	1141.8341      	1141.8386      	1141.8169      	1141.8595      	1141.8358      	1141.8032      	1141.8406      	1141.8151      	1141.7717      	1141.8022      	1141.9087      	1141.3813      	1141.3466      	1141.5717      	1141.602       	1141.5715      	1141.7605      	1141.7134      	1141.6786      	1141.6271      	1141.7753      	1141.7185      	1141.7427      	1141.7677      	1141.6813      	1141.648       	
1142.3252      	1142.2795      	1142.3951      	1142.326       	1142.3674      	1142.407       	1142.425       	1142.3772      	1142.3849      	1142.414       	1142.4304      	1142.4374      	1142.3751      	1142.4167      	1142.388       	1142.4193      	1142.3716      	1142.4081      	1142.3236      	1142.4004      	1142.3619      	1142.3208      	1142.384       	1142.3365      	1142.3605      	1142.3718      	1142.3247      	1142.3146      	1142.3698      	1142.3118      	1142.3804      	1142.3497      	1142.3767      	1142.3079      	1142.3735      	1142.3807      	1142.3243      	1142.4303      	1142.3146      	1142.3884      	1142.3983      	1142.3856      	1142.4099      	1142.3859      	1142.3481      	1142.4744      	1142.3391      	1142.3413      	1142.3429      	1142.4469      	1142.1732      	1142.2439      	1142.1937      	1142.1869      	1142.2773      	1142.3113      	1142.2931      	1142.3025      	1142.3439      	1142.4653      	1142.4508      	1142.5898      	1142.6985      	1142.336       	1142.2906      	1142.3143      	1142.2511      	1142.3019      	1142.2747      	1142.2864      	1142.2982      	1142.2964      	1142.2678      	1142.3083      	1142.2362      	1142.2787      	1142.2455      	1142.243       	1142.2596      	1142.1787      	1142.2664      	1142.2238      	1142.1836      	1142.2119      	1142.2389      	1142.0118      	1141.866       	1141.9509      	1141.8999      	1142.0135      	1142.1262      	1142.1132      	1142.1398      	1142.1216      	1142.1562      	1142.1185      	1142.1418      	1142.083       	1142.1028      	1142.1184      	
1142.5784      	1142.5819      	1142.6243      	1142.6755      	1142.5974      	1142.664       	1142.6682      	1142.6564      	1142.6399      	1142.6898      	1142.6818      	1142.6763      	1142.6724      	1142.6158      	1142.6896      	1142.6641      	1142.6667      	1142.7136      	1142.7302      	1142.7014      	1142.7375      	1142.7126      	1142.7305      	1142.6865      	1142.698       	1142.6799      	1142.6688      	1142.6919      	1142.6721      	1142.7156      	1142.6628      	1142.7032      	1142.6765      	1142.6407      	1142.689       	1142.6749      	1142.6782      	1142.6873      	1142.6902      	1142.6782      	1142.707       	1142.7098      	1142.6925      	1142.7767      	1142.7019      	1142.8566      	1142.628       	1142.4265      	1142.521       	1142.555       	1142.6503      	1142.6467      	1142.6249      	1142.6022      	1142.6414      	1142.6409      	1142.6307      	1142.6177      	1142.6678      	1142.6844      	1142.7411      	1142.7615      	1143.0637      	1142.6368      	1142.6212      	1142.5984      	1142.6669      	1142.5704      	1142.6027      	1142.6239      	1142.6024      	1142.5646      	1142.6042      	1142.6246      	1142.551       	1142.5403      	1142.5973      	1142.5917      	1142.5698      	1142.5446      	1142.5563      	1142.5768      	1142.5435      	1142.535       	1142.5239      	1142.6101      	1142.1047      	1142.2565      	1142.3345      	1142.2983      	1142.4977      	1142.4338      	1142.5001      	1142.4607      	1142.4966      	1142.4841      	1142.5         	1142.5078      	1142.4552      	1142.4218      	
1142.3193      	1142.2722      	1142.2955      	1142.3127      	1142.3414      	1142.3488      	1142.3651      	1142.3448      	1142.3539      	1142.3771      	1142.4034      	1142.3661      	1142.412       	1142.3635      	1142.3674      	1142.3813      	1142.3295      	1142.3926      	1142.3586      	1142.3616      	1142.409       	1142.365       	1142.3943      	1142.4431      	1142.3738      	1142.4324      	1142.3623      	1142.4255      	1142.4553      	1142.4543      	1142.4587      	1142.5278      	1142.3965      	1142.4214      	1142.4695      	1142.4796      	1142.5167      	1142.4833      	1142.4927      	1142.5269      	1142.5555      	1142.467       	1142.2654      	1142.38        	1142.299       	1142.3691      	1142.478       	1142.3892      	1142.4812      	1142.552       	1142.5239      	1142.5295      	1142.511       	1142.5571      	1142.471       	1142.548       	1142.4939      	1142.5616      	1142.4338      	1142.498       	1142.6624      	1142.7134      	1142.7369      	1142.6138      	1142.5134      	1142.4757      	1142.4756      	1142.4839      	1142.4846      	1142.4956      	1142.4865      	1142.5021      	1142.5667      	1142.4869      	1142.5232      	1142.4861      	1142.5033      	1142.4875      	1142.5056      	1142.4686      	1142.4722      	1142.6005      	1142.3608      	1142.4705      	1142.5149      	1142.4904      	1142.0139      	1142.2394      	1142.2616      	1142.3053      	1142.4734      	1142.459       	1142.4523      	1142.4285      	1142.4468      	1142.4784      	1142.4667      	1142.4374      	1142.4208      	1142.3389      	
1141.4622      	1141.524       	1141.5074      	1141.4716      	1141.497       	1141.5327      	1141.5698      	1141.5284      	1141.6132      	1141.6187      	1141.6278      	1141.5753      	1141.5912      	1141.5577      	1141.5875      	1141.5852      	1141.6288      	1141.6047      	1141.612       	1141.6158      	1141.6042      	1141.646       	1141.6184      	1141.6112      	1141.6677      	1141.6411      	1141.6411      	1141.6193      	1141.7065      	1141.7         	1141.686       	1141.7605      	1141.6798      	1141.6691      	1141.7106      	1141.7272      	1141.9562      	1141.5443      	1141.4305      	1141.5546      	1141.5665      	1141.6564      	1141.6965      	1141.6681      	1141.7467      	1141.7075      	1141.7303      	1141.7238      	1141.7405      	1141.749       	1141.7509      	1141.7882      	1141.6843      	1141.7721      	1141.797       	1141.7153      	1141.7489      	1141.7761      	1141.779       	1141.8549      	1141.8381      	1142.0088      	1142.0115      	1142.011       	1141.7644      	1141.7172      	1141.7177      	1141.7413      	1141.7222      	1141.7427      	1141.7528      	1141.7716      	1141.7509      	1141.7944      	1141.7599      	1141.7551      	1141.7609      	1141.7294      	1141.772       	1141.8044      	1141.7882      	1141.7454      	1141.7793      	1141.8134      	1141.7902      	1141.9205      	1141.3802      	1141.5339      	1141.6135      	1141.6552      	1141.6818      	1141.7742      	1141.8716      	1141.7546      	1141.8506      	1141.9165      	1141.8599      	1141.8513      	1141.7247      	1141.7477      	
1140.7587      	1140.8044      	1140.8341      	1140.8418      	1140.8195      	1140.8729      	1140.8257      	1140.8757      	1140.8593      	1140.8522      	1140.9369      	1140.857       	1140.8732      	1140.8771      	1140.9258      	1140.8745      	1140.8049      	1140.8533      	1140.881       	1140.8181      	1140.9026      	1140.7882      	1140.8724      	1140.8505      	1140.9146      	1140.8464      	1140.8108      	1140.8577      	1140.858       	1140.9183      	1140.8608      	1140.9136      	1141.0669      	1140.625       	1140.7245      	1140.7833      	1140.8276      	1140.8835      	1140.8163      	1140.9233      	1140.9456      	1140.9279      	1140.8969      	1140.9336      	1140.8995      	1140.888       	1140.9032      	1140.9133      	1140.9204      	1140.917       	1140.9753      	1140.8402      	1140.9253      	1140.9283      	1140.8982      	1140.9397      	1140.9275      	1140.9073      	1140.8577      	1140.9105      	1140.9629      	1141.0536      	1141.212       	1141.2319      	1140.9305      	1140.9258      	1140.859       	1140.9031      	1140.8594      	1140.8644      	1140.9089      	1140.8895      	1140.8962      	1140.8633      	1140.8889      	1140.8937      	1140.8964      	1140.9374      	1140.9347      	1140.8634      	1140.8699      	1140.8815      	1140.8955      	1140.92        	1140.9326      	1140.9651      	1140.6433      	1140.5286      	1140.6287      	1140.753       	1140.719       	1140.8909      	1140.937       	1140.9568      	1140.841       	1140.9418      	1140.9493      	1140.9237      	1140.8508      	1140.8162      	
1140.5822      	1140.5997      	1140.5455      	1140.6107      	1140.5767      	1140.6384      	1140.5864      	1140.5698      	1140.635       	1140.6147      	1140.6072      	1140.6565      	1140.619       	1140.6238      	1140.6708      	1140.5997      	1140.6428      	1140.5994      	1140.6265      	1140.6633      	1140.5599      	1140.6017      	1140.6552      	1140.5396      	1140.6073      	1140.5967      	1140.6218      	1140.6108      	1140.8058      	1140.3568      	1140.5171      	1140.5403      	1140.5193      	1140.5802      	1140.5867      	1140.6409      	1140.6617      	1140.6573      	1140.6958      	1140.6495      	1140.6421      	1140.6865      	1140.62        	1140.6423      	1140.5724      	1140.6685      	1140.6099      	1140.5969      	1140.6095      	1140.552       	1140.6241      	1140.6345      	1140.5939      	1140.6099      	1140.5905      	1140.6278      	1140.5789      	1140.5702      	1140.5391      	1140.5985      	1140.6212      	1140.6467      	1140.9569      	1140.9401      	1140.4954      	1140.6089      	1140.5867      	1140.5735      	1140.5084      	1140.5961      	1140.5483      	1140.5304      	1140.5461      	1140.5496      	1140.5217      	1140.5741      	1140.545       	1140.539       	1140.5935      	1140.5728      	1140.4824      	1140.5916      	1140.5032      	1140.573       	1140.5044      	1140.5441      	1140.549       	1140.0835      	1140.2854      	1140.3568      	1140.4465      	1140.5203      	1140.536       	1140.6206      	1140.5659      	1140.6067      	1140.6091      	1140.5468      	1140.526       	1140.5447      	
1140.7653      	1140.7742      	1140.8119      	1140.7721      	1140.808       	1140.8143      	1140.7659      	1140.7938      	1140.781       	1140.7521      	1140.8103      	1140.746       	1140.7623      	1140.7495      	1140.7438      	1140.7443      	1140.8179      	1140.7859      	1140.8022      	1140.7144      	1140.7675      	1140.7571      	1140.7534      	1140.7811      	1140.7567      	1140.8335      	1140.6327      	1140.3097      	1140.5356      	1140.6992      	1140.7081      	1140.7041      	1140.7162      	1140.759       	1140.7755      	1140.767       	1140.7527      	1140.6941      	1140.7263      	1140.7339      	1140.6802      	1140.7312      	1140.6864      	1140.696       	1140.6733      	1140.6652      	1140.678       	1140.6786      	1140.6815      	1140.6132      	1140.6664      	1140.6249      	1140.6842      	1140.6193      	1140.6268      	1140.6094      	1140.6147      	1140.5974      	1140.6262      	1140.477       	1140.6045      	1140.7013      	1140.897       	1140.9484      	1140.6083      	1140.539       	1140.5242      	1140.5491      	1140.5697      	1140.5216      	1140.589       	1140.5332      	1140.5626      	1140.5376      	1140.581       	1140.4926      	1140.5361      	1140.4858      	1140.4917      	1140.5096      	1140.4346      	1140.5594      	1140.4445      	1140.5151      	1140.4784      	1140.5145      	1140.6263      	1139.9457      	1140.2372      	1140.3289      	1140.3804      	1140.3992      	1140.5131      	1140.4622      	1140.5691      	1140.4894      	1140.5066      	1140.4745      	1140.5396      	1140.5197      	
1141.2104      	1141.1908      	1141.245       	1141.2424      	1141.2782      	1141.2117      	1141.2692      	1141.239       	1141.2362      	1141.2815      	1141.2395      	1141.309       	1141.2301      	1141.2404      	1141.2699      	1141.2134      	1141.217       	1141.2255      	1141.2362      	1141.2219      	1141.2648      	1141.2489      	1141.2372      	1141.2145      	1141.438       	1140.7394      	1140.8557      	1140.9794      	1141.2415      	1141.2494      	1141.2609      	1141.2335      	1141.2781      	1141.2397      	1141.2727      	1141.2427      	1141.2491      	1141.2345      	1141.1843      	1141.2198      	1141.1708      	1141.1552      	1141.1705      	1141.1342      	1141.1769      	1141.0665      	1141.1337      	1141.1316      	1141.1067      	1141.0735      	1141.1235      	1141.0985      	1141.065       	1141.0554      	1141.0405      	1141.0896      	1141.0249      	1140.9982      	1141.0192      	1140.978       	1141.0731      	1141.0903      	1141.171       	1141.3025      	1141.2213      	1140.9111      	1141.1195      	1140.9315      	1140.9786      	1140.9739      	1140.9363      	1140.9359      	1140.9441      	1140.9208      	1140.9         	1140.8989      	1140.9252      	1140.9597      	1140.8829      	1140.8701      	1140.8945      	1140.9451      	1140.8448      	1140.8862      	1140.8546      	1140.8345      	1141.0037      	1140.4854      	1140.5331      	1140.6548      	1140.7247      	1140.7661      	1140.9207      	1140.922       	1140.911       	1140.9543      	1140.936       	1140.9255      	1140.9055      	1140.9045      	
1141.5361      	1141.5543      	1141.5962      	1141.563       	1141.6119      	1141.58        	1141.6394      	1141.5682      	1141.4849      	1141.621       	1141.544       	1141.5319      	1141.5481      	1141.561       	1141.5017      	1141.5869      	1141.5474      	1141.4617      	1141.5198      	1141.4698      	1141.5803      	1141.532       	1141.5913      	1141.6552      	1141.1616      	1141.1411      	1141.3173      	1141.4309      	1141.5312      	1141.554       	1141.5835      	1141.5165      	1141.5765      	1141.5378      	1141.5547      	1141.5756      	1141.5388      	1141.5662      	1141.4904      	1141.5311      	1141.4738      	1141.4661      	1141.4604      	1141.4259      	1141.422       	1141.4735      	1141.4124      	1141.4043      	1141.4133      	1141.4567      	1141.3518      	1141.3948      	1141.3394      	1141.4198      	1141.3779      	1141.5281      	1141.2893      	1141.3937      	1141.372       	1141.3237      	1141.4227      	1141.4188      	1141.4801      	1141.7856      	1141.6034      	1141.3215      	1141.3677      	1141.2665      	1141.3517      	1141.2892      	1141.3643      	1141.2776      	1141.3195      	1141.3208      	1141.2472      	1141.2942      	1141.308       	1141.3231      	1141.2622      	1141.305       	1141.2899      	1141.2997      	1141.2883      	1141.3309      	1141.3224      	1141.2585      	1141.37        	1141.2844      	1140.9221      	1141.0422      	1141.1782      	1141.175       	1141.378       	1141.3269      	1141.3624      	1141.3381      	1141.4034      	1141.4855      	1141.2787      	1141.2219      	
1141.5443      	1141.5585      	1141.5599      	1141.5924      	1141.579       	1141.623       	1141.6565      	1141.5969      	1141.6327      	1141.6251      	1141.644       	1141.7056      	1141.558       	1141.6023      	1141.6373      	1141.601       	1141.574       	1141.5729      	1141.5616      	1141.5737      	1141.5657      	1141.5782      	1141.5443      	1141.6555      	1141.0565      	1141.3497      	1141.405       	1141.433       	1141.5417      	1141.5829      	1141.6411      	1141.6451      	1141.636       	1141.6647      	1141.5848      	1141.6077      	1141.6115      	1141.5637      	1141.5417      	1141.5919      	1141.598       	1141.5747      	1141.5054      	1141.5691      	1141.523       	1141.5598      	1141.5021      	1141.5227      	1141.5549      	1141.5121      	1141.5175      	1141.4774      	1141.5253      	1141.563       	1141.5028      	1141.549       	1141.5096      	1141.5137      	1141.5215      	1141.5049      	1141.522       	1141.5422      	1141.6157      	1141.8687      	1141.8446      	1141.5134      	1141.494       	1141.502       	1141.467       	1141.4292      	1141.5403      	1141.4869      	1141.4763      	1141.5289      	1141.4812      	1141.4377      	1141.4626      	1141.4615      	1141.4142      	1141.4119      	1141.4272      	1141.4169      	1141.4452      	1141.399       	1141.4755      	1141.4089      	1141.5227      	1141.3701      	1141.0276      	1141.251       	1141.3689      	1141.3549      	1141.463       	1141.5033      	1141.5404      	1141.5386      	1141.5667      	1141.5376      	1141.5238      	1141.5071      	
1141.5028      	1141.4252      	1141.4625      	1141.4989      	1141.5248      	1141.4608      	1141.4968      	1141.4813      	1141.4485      	1141.5741      	1141.4738      	1141.4326      	1141.4823      	1141.4702      	1141.5208      	1141.4305      	1141.4828      	1141.439       	1141.4543      	1141.4976      	1141.4563      	1141.4728      	1141.5002      	1141.5527      	1141.0298      	1141.2014      	1141.3588      	1141.2701      	1141.4781      	1141.5376      	1141.4989      	1141.4948      	1141.4623      	1141.4799      	1141.4551      	1141.4414      	1141.4666      	1141.4445      	1141.43        	1141.4696      	1141.3977      	1141.4768      	1141.3169      	1141.4473      	1141.4275      	1141.3813      	1141.4548      	1141.3699      	1141.4027      	1141.3871      	1141.3743      	1141.414       	1141.408       	1141.3634      	1141.4697      	1141.4316      	1141.3811      	1141.4526      	1141.418       	1141.4733      	1141.3464      	1141.406       	1141.4904      	1141.541       	1141.9459      	1141.4766      	1141.3873      	1141.3945      	1141.2853      	1141.3105      	1141.4198      	1141.3666      	1141.3765      	1141.3356      	1141.3585      	1141.326       	1141.3303      	1141.3927      	1141.3462      	1141.4025      	1141.3234      	1141.3251      	1141.3905      	1141.3662      	1141.4296      	1141.3746      	1141.3884      	1141.4835      	1140.9877      	1141.0356      	1141.1327      	1141.2435      	1141.3381      	1141.4875      	1141.495       	1141.4702      	1141.328       	1141.4604      	1141.448       	1141.5084      	
1141.5969      	1141.5597      	1141.5818      	1141.6073      	1141.6237      	1141.598       	1141.5636      	1141.5839      	1141.6095      	1141.5507      	1141.5854      	1141.5801      	1141.5459      	1141.5695      	1141.5997      	1141.5398      	1141.5718      	1141.5093      	1141.5419      	1141.5293      	1141.5768      	1141.5277      	1141.5565      	1141.8007      	1141.1036      	1141.3435      	1141.404       	1141.3085      	1141.5154      	1141.5997      	1141.5144      	1141.5791      	1141.495       	1141.5615      	1141.4678      	1141.5753      	1141.5115      	1141.5144      	1141.5106      	1141.5034      	1141.4612      	1141.4655      	1141.4543      	1141.4426      	1141.4387      	1141.468       	1141.4073      	1141.4412      	1141.4062      	1141.4417      	1141.3821      	1141.4127      	1141.4038      	1141.4529      	1141.3984      	1141.389       	1141.3918      	1141.4481      	1141.4225      	1141.4456      	1141.4165      	1141.3759      	1141.4692      	1141.5409      	1141.673       	1141.6292      	1141.3777      	1141.3556      	1141.3098      	1141.3577      	1141.354       	1141.3206      	1141.3605      	1141.3765      	1141.337       	1141.3413      	1141.3411      	1141.355       	1141.3661      	1141.34        	1141.354       	1141.3591      	1141.3489      	1141.3256      	1141.3079      	1141.2891      	1141.3505      	1141.4038      	1140.781       	1140.9968      	1141.2058      	1141.2286      	1141.242       	1141.4077      	1141.5532      	1141.1289      	1141.274       	1141.4701      	1141.4529      	1141.4481      	
1141.6439      	1141.6146      	1141.679       	1141.632       	1141.6323      	1141.6709      	1141.635       	1141.6714      	1141.6685      	1141.6292      	1141.6226      	1141.5833      	1141.5974      	1141.6261      	1141.6102      	1141.6235      	1141.6034      	1141.6         	1141.6632      	1141.6073      	1141.6099      	1141.6492      	1141.6337      	1141.6898      	1141.4366      	1141.284       	1141.4598      	1141.4462      	1141.4694      	1141.6294      	1141.5775      	1141.6288      	1141.6057      	1141.5874      	1141.5603      	1141.5543      	1141.5891      	1141.5232      	1141.5663      	1141.4915      	1141.4994      	1141.4779      	1141.4818      	1141.5284      	1141.4894      	1141.4908      	1141.4991      	1141.5083      	1141.4323      	1141.4856      	1141.5231      	1141.4581      	1141.5139      	1141.5339      	1141.457       	1141.4352      	1141.5953      	1141.508       	1141.5164      	1141.4858      	1141.4601      	1141.5215      	1141.5413      	1141.6091      	1141.7096      	1141.7516      	1141.5315      	1141.4706      	1141.4753      	1141.4191      	1141.4171      	1141.4336      	1141.4564      	1141.4166      	1141.448       	1141.4048      	1141.4191      	1141.4161      	1141.4086      	1141.4321      	1141.4615      	1141.4265      	1141.4326      	1141.4509      	1141.4946      	1141.4482      	1141.471       	1141.5486      	1141.1548      	1141.2008      	1141.2009      	1141.437       	1141.388       	1141.5413      	1141.6031      	1141.5613      	1141.6887      	1141.4197      	1141.2557      	1141.3967      	
1141.2811      	1141.4829      	1141.4904      	1141.4497      	1141.4797      	1141.4355      	1141.421       	1141.4678      	1141.4989      	1141.41        	1141.4435      	1141.4171      	1141.4531      	1141.381       	1141.4381      	1141.4421      	1141.3796      	1141.4115      	1141.4097      	1141.4257      	1141.4481      	1141.4613      	1141.4244      	1141.4165      	1141.4612      	1141.0477      	1141.1415      	1141.2843      	1141.306       	1141.376       	1141.4126      	1141.4146      	1141.4597      	1141.3997      	1141.412       	1141.3882      	1141.3016      	1141.3816      	1141.3499      	1141.3958      	1141.3208      	1141.3391      	1141.3364      	1141.3616      	1141.3192      	1141.3586      	1141.3302      	1141.2634      	1141.3468      	1141.2913      	1141.3684      	1141.3292      	1141.2998      	1141.3354      	1141.3815      	1141.3474      	1141.463       	1141.203       	1141.3179      	1141.4498      	1141.4028      	1141.258       	1141.4647      	1141.4708      	1141.6738      	1141.6217      	1141.4025      	1141.3322      	1141.3077      	1141.3036      	1141.3954      	1141.201       	1141.3385      	1141.3011      	1141.2957      	1141.3208      	1141.3206      	1141.2954      	1141.3342      	1141.2795      	1141.3169      	1141.3843      	1141.3123      	1141.338       	1141.3329      	1141.3628      	1141.3502      	1141.3658      	1141.2634      	1140.9457      	1141.2141      	1141.363       	1141.1991      	1141.3777      	1141.4249      	1141.5115      	1141.4326      	1141.4612      	1141.5159      	1141.504       	
1141.6346      	1141.852       	1141.5691      	1141.5508      	1141.5988      	1141.5461      	1141.6449      	1141.502       	1141.5676      	1141.5128      	1141.4851      	1141.5325      	1141.5417      	1141.5074      	1141.5314      	1141.489       	1141.4973      	1141.5405      	1141.4591      	1141.4827      	1141.5585      	1141.496       	1141.537       	1141.5206      	1141.6769      	1141.0002      	1141.223       	1141.3292      	1141.3724      	1141.4257      	1141.5099      	1141.4271      	1141.5001      	1141.4812      	1141.4861      	1141.3481      	1141.393       	1141.5809      	1141.3785      	1141.4675      	1141.4049      	1141.4155      	1141.3309      	1141.427       	1141.3763      	1141.3376      	1141.4442      	1141.4244      	1141.3411      	1141.3634      	1141.4165      	1141.3975      	1141.3894      	1141.4507      	1141.4255      	1141.521       	1141.2306      	1141.278       	1141.4637      	1141.4933      	1141.3567      	1141.387       	1141.4447      	1141.5383      	1141.5623      	1141.6862      	1141.4316      	1141.3723      	1141.3674      	1141.3634      	1141.2891      	1141.2999      	1141.3286      	1141.3141      	1141.3833      	1141.3235      	1141.313       	1141.3173      	1141.3049      	1141.3322      	1141.291       	1141.3352      	1141.3138      	1141.3181      	1141.3276      	1141.338       	1141.3722      	1141.3687      	1141.5577      	1140.908       	1141.155       	1141.2122      	1141.2682      	1141.3457      	1141.4741      	1141.4414      	1141.5269      	1141.3788      	1141.4037      	1141.4735      	
1141.7876      	1142.0227      	1142.0648      	1141.6873      	1141.7457      	1141.6848      	1141.6504      	1141.705       	1141.6473      	1141.6241      	1141.6409      	1141.5927      	1141.5911      	1141.6057      	1141.5848      	1141.5592      	1141.6624      	1141.5948      	1141.6292      	1141.5844      	1141.6193      	1141.5975      	1141.5936      	1141.613       	1141.6597      	1141.428       	1141.2087      	1141.439       	1141.4865      	1141.504       	1141.5154      	1141.622       	1141.5812      	1141.4884      	1141.5118      	1141.5378      	1141.5222      	1141.5736      	1141.468       	1141.5511      	1141.4895      	1141.488       	1141.4722      	1141.5123      	1141.4655      	1141.4661      	1141.4904      	1141.4054      	1141.5024      	1141.4816      	1141.5007      	1141.4633      	1141.477       	1141.5012      	1141.4591      	1141.4921      	1141.4998      	1141.5063      	1141.5256      	1141.5383      	1141.4572      	1141.4939      	1141.4629      	1141.6759      	1141.5538      	1141.7716      	1141.7017      	1141.4375      	1141.4518      	1141.461       	1141.4453      	1141.4696      	1141.4231      	1141.3999      	1141.4395      	1141.4465      	1141.4314      	1141.4513      	1141.4746      	1141.4285      	1141.4637      	1141.461       	1141.4794      	1141.5255      	1141.4944      	1141.5137      	1141.5128      	1141.5267      	1141.6862      	1141.283       	1141.1827      	1141.4016      	1141.5271      	1141.5886      	1141.6844      	1141.6505      	1141.7147      	1141.5088      	1141.4806      	1141.6736      	
1141.7657      	1141.8739      	1142.1853      	1141.771       	1141.8853      	1141.761       	1141.7267      	1141.705       	1141.7286      	1141.7252      	1141.6649      	1141.7207      	1141.7252      	1141.6786      	1141.7311      	1141.6924      	1141.6941      	1141.7511      	1141.7578      	1141.7228      	1141.7408      	1141.6946      	1141.7239      	1141.7202      	1141.7682      	1141.7786      	1141.2532      	1141.468       	1141.5494      	1141.4958      	1141.6343      	1141.6863      	1141.5399      	1141.6631      	1141.6293      	1141.6084      	1141.6099      	1141.5847      	1141.588       	1141.5187      	1141.5969      	1141.5653      	1141.5815      	1141.5898      	1141.5763      	1141.5647      	1141.5914      	1141.5402      	1141.5929      	1141.628       	1141.5623      	1141.5782      	1141.5491      	1141.6154      	1141.6139      	1141.5941      	1141.6334      	1141.5928      	1141.5662      	1141.5708      	1141.5569      	1141.5839      	1141.5615      	1141.5988      	1141.6418      	1141.8914      	1141.92        	1141.5284      	1141.4965      	1141.4701      	1141.5146      	1141.4944      	1141.5227      	1141.5282      	1141.4839      	1141.5159      	1141.446       	1141.4861      	1141.4803      	1141.4955      	1141.5099      	1141.4786      	1141.51        	1141.5477      	1141.4788      	1141.543       	1141.4866      	1141.5405      	1141.7181      	1141.2262      	1141.2578      	1141.4618      	1141.5356      	1141.5328      	1141.6771      	1141.6971      	1141.7456      	1141.4758      	1141.4653      	1141.5933      	
1141.9985      	1142.1519      	1142.3601      	1142.1147      	1141.9138      	1141.9109      	1141.9364      	1141.913       	1141.92        	1141.865       	1141.9539      	1141.8501      	1141.8694      	1141.9559      	1141.937       	1142.0223      	1141.8064      	1141.9979      	1141.8745      	1141.8524      	1141.9529      	1141.8595      	1141.9323      	1141.8745      	1141.9172      	1142.1077      	1141.5193      	1141.4565      	1141.6177      	1141.8419      	1141.7249      	1141.7485      	1141.839       	1141.8728      	1141.8188      	1141.78        	1141.8169      	1141.8339      	1141.7485      	1141.8358      	1141.7777      	1141.799       	1141.822       	1141.8186      	1141.8424      	1141.8645      	1141.7312      	1141.8435      	1141.8228      	1141.8087      	1141.785       	1141.8282      	1141.8182      	1141.8188      	1141.8477      	1141.8276      	1141.7996      	1141.9012      	1141.8356      	1141.7074      	1141.9441      	1141.6906      	1141.7723      	1141.8846      	1141.8976      	1142.0562      	1142.1505      	1141.7987      	1141.7433      	1141.685       	1141.7764      	1141.7         	1141.7101      	1141.699       	1141.7012      	1141.7289      	1141.6942      	1141.7648      	1141.7223      	1141.7081      	1141.7378      	1141.7611      	1141.762       	1141.779       	1141.8298      	1141.8253      	1141.796       	1141.824       	1141.9315      	1141.6671      	1141.4553      	1141.6311      	1141.7297      	1141.7896      	1141.868       	1141.9536      	1141.9084      	1141.8801      	1141.8567      	1141.8757      	
1141.9446      	1142.0607      	1142.3068      	1142.0841      	1141.9357      	1141.9171      	1141.8477      	1141.8855      	1141.8772      	1141.8876      	1141.9347      	1141.9155      	1141.8925      	1141.8649      	1142.0227      	1141.8359      	1141.7626      	1141.9045      	1141.9491      	1141.8723      	1141.8533      	1141.9277      	1141.8956      	1141.8088      	1141.8888      	1142.0688      	1141.5383      	1141.5508      	1141.6206      	1141.7097      	1141.7501      	1141.7577      	1141.8081      	1141.823       	1141.7767      	1141.7783      	1141.7491      	1141.7921      	1141.7891      	1141.7009      	1141.7733      	1141.776       	1141.7797      	1141.7478      	1141.7596      	1141.8058      	1141.7916      	1141.7987      	1141.773       	1141.8048      	1141.8082      	1141.8091      	1141.903       	1141.7858      	1141.88        	1141.8558      	1141.8807      	1141.7816      	1141.8596      	1141.8335      	1141.8557      	1141.7795      	1141.8394      	1141.8679      	1141.8661      	1142.069       	1142.1732      	1142.0311      	1141.7982      	1141.7834      	1141.7764      	1141.7747      	1141.8308      	1141.7793      	1141.7568      	1141.8384      	1141.7733      	1141.8074      	1141.7964      	1141.7896      	1141.8319      	1141.899       	1141.8542      	1141.8475      	1141.8606      	1141.8936      	1141.8877      	1141.8986      	1141.9321      	1142.0222      	1141.3818      	1141.6654      	1141.8486      	1141.8358      	1141.9182      	1142.0255      	1141.9822      	1142.0673      	1141.9718      	1141.9032      	
1141.9485      	1142.1079      	1142.2732      	1142.2023      	1141.8873      	1141.802       	1141.8319      	1141.801       	1141.7761      	1141.7402      	1141.7903      	1141.8323      	1141.7607      	1141.8728      	1141.6713      	1141.9413      	1141.7458      	1141.7327      	1141.9         	1141.8059      	1141.8331      	1141.9111      	1141.846       	1141.7432      	1141.836       	1141.8534      	1141.7655      	1141.4376      	1141.5837      	1141.5776      	1141.6334      	1141.7466      	1141.7509      	1141.7411      	1141.7112      	1141.7316      	1141.681       	1141.7556      	1141.7212      	1141.7394      	1141.7186      	1141.7405      	1141.7618      	1141.7058      	1141.7529      	1141.7776      	1141.7333      	1141.7573      	1141.7781      	1141.738       	1141.8412      	1141.7932      	1141.8167      	1141.826       	1141.8053      	1141.8691      	1141.8195      	1141.8397      	1141.8221      	1141.787       	1141.8463      	1141.7894      	1141.8195      	1141.8457      	1141.882       	1141.9796      	1142.1753      	1142.0303      	1141.8116      	1141.778       	1141.7996      	1141.7814      	1141.7474      	1141.7815      	1141.7714      	1141.8147      	1141.7479      	1141.7966      	1141.7826      	1141.842       	1141.7483      	1141.8225      	1141.8031      	1141.8728      	1141.8468      	1141.8759      	1141.8174      	1141.82        	1141.8901      	1142.0022      	1141.5123      	1141.5677      	1141.66        	1141.7611      	1141.8934      	1141.9915      	1141.8809      	1141.9591      	1141.8961      	1141.9001      	
1141.884       	1141.9417      	1142.2467      	1142.2571      	1141.8275      	1141.8567      	1141.815       	1141.8774      	1141.8562      	1141.831       	1141.8544      	1141.8478      	1141.9513      	1141.6409      	1141.7466      	1141.902       	1141.7877      	1141.8005      	1141.8706      	1141.8053      	1141.8523      	1141.7727      	1141.8052      	1141.7908      	1141.7726      	1141.811       	1141.8857      	1141.2783      	1141.4753      	1141.5334      	1141.6434      	1141.7166      	1141.7452      	1141.7166      	1141.8175      	1141.6234      	1141.6609      	1141.7823      	1141.761       	1141.7294      	1141.7036      	1141.7426      	1141.6492      	1141.7004      	1141.7657      	1141.7587      	1141.739       	1141.7903      	1141.7625      	1141.7891      	1141.8252      	1141.8491      	1141.8116      	1141.8535      	1141.8323      	1141.7708      	1141.8533      	1141.8257      	1141.7599      	1141.8569      	1141.7601      	1141.8203      	1141.7786      	1141.7812      	1141.8167      	1141.9768      	1142.1545      	1141.9712      	1141.7909      	1141.7365      	1141.7675      	1141.7705      	1141.6907      	1141.7228      	1141.7273      	1141.7283      	1141.7483      	1141.7887      	1141.7784      	1141.8335      	1141.7878      	1141.8342      	1141.8192      	1141.8339      	1141.8446      	1141.8401      	1141.9058      	1141.8518      	1141.938       	1141.9359      	1141.6893      	1141.5228      	1141.6741      	1141.7593      	1141.807       	1141.9546      	1141.9354      	1141.8547      	1141.8655      	1141.9318      	
1142.0333      	1142.0969      	1142.1987      	1142.526       	1142.1437      	1142.0056      	1142.0151      	1142.1027      	1141.9417      	1142.015       	1141.9669      	1142.0237      	1142.0181      	1142.0781      	1141.9288      	1142.0226      	1142.0935      	1142.0194      	1142.0155      	1142.0483      	1141.9476      	1141.9954      	1141.9938      	1141.9691      	1142.0353      	1142.0112      	1142.0743      	1141.4852      	1141.7986      	1141.6229      	1141.787       	1141.9764      	1141.9305      	1142.0952      	1141.8185      	1141.8782      	1142.119       	1141.978       	1141.8267      	1142.0809      	1141.9169      	1141.8508      	1142.0144      	1141.9265      	1141.9991      	1141.9509      	1142.0952      	1141.9224      	1142.0421      	1142.026       	1142.0167      	1142.0344      	1142.0491      	1142.0383      	1141.9733      	1142.0093      	1142.0344      	1142.0023      	1141.9746      	1142.003       	1142.0715      	1141.9615      	1141.9656      	1141.963       	1141.9304      	1142.0491      	1142.2325      	1142.2913      	1141.9504      	1141.8674      	1141.9567      	1141.9099      	1141.9395      	1141.9269      	1141.9208      	1141.9081      	1141.9318      	1141.9244      	1141.9576      	1141.946       	1142.005       	1141.9589      	1141.9974      	1142.0198      	1141.9612      	1141.9622      	1142.0186      	1141.993       	1142.0044      	1142.0183      	1141.929       	1141.599       	1141.8312      	1141.9292      	1141.9882      	1142.008       	1142.1198      	1142.1163      	1142.1423      	1142.1747      	
1142.1102      	1142.166       	1142.2495      	1142.4796      	1142.236       	1142.0763      	1142.0886      	1142.0145      	1142.0636      	1142.0183      	1142.0779      	1142.0403      	1142.0452      	1141.9924      	1142.069       	1142.0787      	1142.1329      	1141.9897      	1142.0403      	1142.0907      	1142.0332      	1142.0181      	1142.1101      	1141.9802      	1142.0671      	1142.0386      	1142.2577      	1141.4874      	1141.7382      	1141.8386      	1141.8904      	1141.9957      	1142.0607      	1141.8903      	1142.0269      	1142.0286      	1142.0481      	1142.0818      	1142.0106      	1142.078       	1142.0481      	1142.0419      	1142.0903      	1142.0603      	1142.0012      	1142.2384      	1141.9712      	1142.0458      	1142.1749      	1142.1698      	1142.0702      	1142.1394      	1142.1453      	1142.1001      	1142.1251      	1142.1316      	1142.0587      	1142.132       	1142.1265      	1142.0754      	1142.0995      	1142.1669      	1142.0542      	1142.0653      	1142.1685      	1142.2605      	1142.3417      	1142.4559      	1142.172       	1142.0981      	1142.0911      	1142.0653      	1142.0391      	1142.0575      	1142.0295      	1142.0763      	1142.1064      	1142.089       	1142.1069      	1142.1029      	1142.1484      	1142.1384      	1142.1337      	1142.1218      	1142.1454      	1142.1508      	1142.1757      	1142.1482      	1142.1519      	1142.2312      	1142.346       	1141.7245      	1142.0437      	1142.2351      	1142.1669      	1142.1534      	1142.1729      	1142.2927      	1142.3395      	1142.3065      	
1142.1049      	1142.125       	1142.0142      	1142.4265      	1142.3159      	1142.0361      	1142.0663      	1142.0725      	1142.0936      	1141.9875      	1142.114       	1142.0372      	1142.0851      	1142.146       	1142.0237      	1141.9474      	1142.1495      	1141.9905      	1142.0681      	1142.2072      	1142.0442      	1142.1185      	1142.0857      	1141.9534      	1142.1747      	1142.0593      	1142.1736      	1141.6802      	1141.7626      	1141.838       	1141.8704      	1141.9873      	1141.996       	1141.9667      	1142.1398      	1142.0372      	1142.0656      	1142.0583      	1142.0452      	1142.076       	1142.0896      	1142.0486      	1142.1083      	1142.1013      	1142.2125      	1141.9647      	1141.9973      	1142.0048      	1142.1877      	1142.3052      	1142.1261      	1142.1139      	1142.1884      	1142.1271      	1142.1229      	1142.1663      	1142.1443      	1142.1237      	1142.1766      	1142.1621      	1142.1255      	1142.201       	1142.0543      	1142.1161      	1142.1648      	1142.1818      	1142.2915      	1142.6024      	1142.2775      	1142.077       	1142.0627      	1142.0746      	1142.067       	1142.1327      	1142.1066      	1142.1086      	1142.0891      	1142.1326      	1142.0969      	1142.1198      	1142.1235      	1142.2302      	1142.1691      	1142.2225      	1142.1493      	1142.2089      	1142.2075      	1142.197       	1142.232       	1142.2096      	1142.3583      	1141.9493      	1142.0671      	1142.1454      	1142.0409      	1142.0903      	1142.3341      	1142.2329      	1142.1376      	1142.4607      	
1142.2677      	1142.2258      	1142.327       	1142.3844      	1142.5918      	1142.2148      	1142.1996      	1142.2168      	1142.2247      	1142.2278      	1142.2043      	1142.2258      	1142.3204      	1142.2543      	1142.1416      	1142.0686      	1142.2827      	1142.1671      	1142.1624      	1142.1903      	1142.1575      	1142.1454      	1142.1906      	1142.0323      	1142.2273      	1142.1086      	1142.2163      	1142.1556      	1141.5156      	1141.8589      	1142.1505      	1141.9705      	1141.9891      	1142.0509      	1142.1948      	1142.1512      	1142.1605      	1142.0868      	1142.1423      	1142.1525      	1142.1589      	1142.1666      	1142.2078      	1142.1979      	1142.214       	1142.1636      	1142.0321      	1142.113       	1142.4164      	1142.2567      	1142.2427      	1142.251       	1142.1943      	1142.2721      	1142.1854      	1142.2845      	1142.2072      	1142.2297      	1142.2715      	1142.2065      	1142.2343      	1142.2512      	1142.2039      	1142.1716      	1142.214       	1142.2761      	1142.3787      	1142.548       	1142.5365      	1142.2131      	1142.1757      	1142.1945      	1142.2264      	1142.1873      	1142.2528      	1142.1608      	1142.286       	1142.2162      	1142.298       	1142.1997      	1142.2644      	1142.2638      	1142.2953      	1142.3345      	1142.3383      	1142.2863      	1142.3342      	1142.3496      	1142.3445      	1142.3082      	1142.3877      	1142.2795      	1142.3021      	1142.0826      	1142.1525      	1142.2583      	1142.2959      	1142.5139      	1142.4924      	1142.5156      	
1142.1365      	1142.1893      	1142.2804      	1142.3159      	1142.5593      	1142.276       	1142.0836      	1142.1461      	1142.1031      	1142.1368      	1142.1168      	1142.1154      	1142.2407      	1142.0691      	1142.1677      	1142.1456      	1142.1871      	1142.1736      	1142.1302      	1142.1686      	1142.1005      	1142.1075      	1142.1495      	1142.116       	1142.178       	1142.1118      	1142.1206      	1142.3683      	1141.5422      	1141.852       	1141.9136      	1142.0115      	1142.3052      	1141.9099      	1142.0007      	1142.1082      	1142.1912      	1142.037       	1142.181       	1142.1323      	1142.186       	1142.1821      	1142.1971      	1142.1459      	1142.1702      	1142.2153      	1142.1642      	1142.1921      	1142.2112      	1142.2863      	1142.2572      	1142.2823      	1142.2787      	1142.2479      	1142.2689      	1142.2593      	1142.2866      	1142.2599      	1142.2537      	1142.1993      	1142.2781      	1142.287       	1142.3356      	1142.2043      	1142.3259      	1142.2815      	1142.3181      	1142.5724      	1142.5308      	1142.2609      	1142.214       	1142.1925      	1142.2214      	1142.1711      	1142.2443      	1142.2216      	1142.231       	1142.2782      	1142.2341      	1142.2656      	1142.2548      	1142.313       	1142.3351      	1142.4502      	1142.2545      	1142.2958      	1142.3777      	1142.4365      	1142.4432      	1142.385       	1142.4094      	1142.449       	1142.452       	1142.1993      	1142.1296      	1142.3895      	1142.3514      	1142.5876      	1142.6599      	1142.5759      	
1142.3893      	1142.4169      	1142.44        	1142.4983      	1142.8378      	1142.5862      	1142.3398      	1142.3966      	1142.2667      	1142.2963      	1142.3141      	1142.2808      	1142.3016      	1142.313       	1142.3136      	1142.3557      	1142.2867      	1142.3046      	1142.3103      	1142.3359      	1142.2697      	1142.2988      	1142.2971      	1142.2839      	1142.23        	1142.2758      	1142.2864      	1142.4115      	1141.9302      	1141.9171      	1142.0536      	1142.1417      	1142.2002      	1142.2853      	1142.2415      	1142.2975      	1142.322       	1142.2716      	1142.2986      	1142.2806      	1142.3276      	1142.355       	1142.238       	1142.297       	1142.3982      	1142.3804      	1142.346       	1142.3647      	1142.3586      	1142.3823      	1142.4064      	1142.3828      	1142.3593      	1142.3767      	1142.367       	1142.3776      	1142.3903      	1142.3917      	1142.3195      	1142.3982      	1142.3633      	1142.3312      	1142.4028      	1142.2124      	1142.4279      	1142.3055      	1142.4485      	1142.5558      	1142.7059      	1142.4618      	1142.342       	1142.3008      	1142.299       	1142.3333      	1142.3618      	1142.3816      	1142.4093      	1142.2561      	1142.3468      	1142.3569      	1142.3849      	1142.3931      	1142.3602      	1142.34        	1142.3474      	1142.3986      	1142.3679      	1142.4111      	1142.4144      	1142.421       	1142.3812      	1142.3938      	1142.4135      	1142.3513      	1142.3729      	1142.3641      	1142.4003      	1142.2468      	1142.3093      	1142.4049      	
1142.6278      	1142.6073      	1142.6515      	1142.7102      	1142.8253      	1143.1438      	1142.6315      	1142.5897      	1142.5988      	1142.6278      	1142.5884      	1142.6005      	1142.6364      	1142.656       	1142.6635      	1142.6783      	1142.6653      	1142.6423      	1142.5846      	1142.6049      	1142.659       	1142.646       	1142.6127      	1142.6317      	1142.626       	1142.5931      	1142.5902      	1142.6335      	1142.5243      	1142.2583      	1142.3654      	1142.4634      	1142.4982      	1142.6036      	1142.6359      	1142.5525      	1142.6636      	1142.632       	1142.6736      	1142.6503      	1142.6881      	1142.6804      	1142.6711      	1142.6957      	1142.8011      	1142.709       	1142.7968      	1142.7318      	1142.7415      	1142.656       	1142.7134      	1142.7333      	1142.721       	1142.7537      	1142.7141      	1142.7214      	1142.7003      	1142.6991      	1142.7451      	1142.6931      	1142.7043      	1142.6736      	1142.7007      	1142.7611      	1142.5771      	1142.7195      	1142.7877      	1142.784       	1143.0251      	1142.9071      	1142.6511      	1142.6285      	1142.6442      	1142.7087      	1142.6849      	1142.7109      	1142.6526      	1142.7054      	1142.6757      	1142.6493      	1142.7589      	1142.7169      	1142.6826      	1142.7634      	1142.7478      	1142.6926      	1142.7279      	1142.7142      	1142.761       	1142.6857      	1142.7797      	1142.7533      	1142.7355      	1142.7407      	1142.7307      	1142.6835      	1142.7144      	1142.6626      	1142.709       	1142.736       	
1142.6504      	1142.6731      	1142.7576      	1142.8547      	1142.9897      	1143.0382      	1142.8179      	1142.6749      	1142.7225      	1142.7274      	1142.7502      	1142.7206      	1142.7155      	1142.7496      	1142.741       	1142.6874      	1142.6698      	1142.6954      	1142.7198      	1142.7142      	1142.7241      	1142.7688      	1142.7186      	1142.7341      	1142.7002      	1142.688       	1142.7054      	1142.7102      	1142.807       	1142.1968      	1142.4292      	1142.5284      	1142.675       	1142.7296      	1142.778       	1142.6841      	1142.8043      	1142.7744      	1142.8226      	1142.7997      	1142.8387      	1142.8346      	1142.8386      	1142.9077      	1142.8574      	1142.8168      	1142.8721      	1142.8558      	1142.9016      	1142.8752      	1142.8787      	1142.9551      	1142.8192      	1142.8969      	1142.889       	1142.8882      	1142.9061      	1142.8705      	1142.9146      	1142.8971      	1142.8861      	1142.825       	1142.8899      	1142.9105      	1142.8234      	1142.8391      	1142.9552      	1142.963       	1143.2191      	1143.122       	1142.8611      	1142.9001      	1142.7938      	1142.8083      	1142.8488      	1142.8748      	1142.8749      	1142.8419      	1142.8821      	1142.8732      	1142.9075      	1142.925       	1142.9054      	1142.936       	1142.9045      	1142.924       	1142.9434      	1142.9585      	1142.9823      	1142.9519      	1142.955       	1142.9235      	1142.9568      	1142.9651      	1142.8892      	1142.9685      	1142.796       	1142.8796      	1142.8999      	1142.8927      	
1142.5327      	1142.4984      	1142.4833      	1142.6027      	1142.7546      	1142.852       	1142.7157      	1142.4557      	1142.5667      	1142.5232      	1142.573       	1142.5253      	1142.5325      	1142.5295      	1142.5603      	1142.4775      	1142.5643      	1142.5194      	1142.528       	1142.5227      	1142.4933      	1142.5515      	1142.5381      	1142.5354      	1142.4788      	1142.5698      	1142.5048      	1142.5544      	1142.6294      	1142.029       	1142.3799      	1142.3496      	1142.3596      	1142.5109      	1142.6151      	1142.6052      	1142.5812      	1142.618       	1142.5946      	1142.6326      	1142.6427      	1142.613       	1142.6896      	1142.6606      	1142.6699      	1142.6384      	1142.7072      	1142.6757      	1142.6996      	1142.6416      	1142.7284      	1142.6743      	1142.6863      	1142.646       	1142.6947      	1142.7029      	1142.7267      	1142.7416      	1142.7046      	1142.6598      	1142.7338      	1142.6947      	1142.7804      	1142.5883      	1142.699       	1142.7659      	1142.6398      	1142.7805      	1142.8964      	1143.0884      	1142.8495      	1142.684       	1142.7329      	1142.707       	1142.6743      	1142.7327      	1142.7401      	1142.7261      	1142.769       	1142.7395      	1142.756       	1142.7604      	1142.8301      	1142.8392      	1142.7772      	1142.8087      	1142.7932      	1142.7961      	1142.8518      	1142.7864      	1142.6956      	1142.8877      	1142.7611      	1142.7783      	1142.7467      	1142.7356      	1142.7145      	1142.7146      	1142.7202      	1142.725       	
1142.3248      	1142.313       	1142.3105      	1142.5542      	1142.5139      	1142.4716      	1142.7136      	1142.3915      	1142.3771      	1142.3011      	1142.3303      	1142.338       	1142.324       	1142.3401      	1142.3993      	1142.2728      	1142.3195      	1142.385       	1142.3291      	1142.2999      	1142.3329      	1142.3341      	1142.3339      	1142.3104      	1142.284       	1142.323       	1142.3425      	1142.3407      	1142.5249      	1141.8641      	1142.0781      	1142.134       	1142.2606      	1142.1495      	1142.3909      	1142.384       	1142.3058      	1142.4336      	1142.405       	1142.3981      	1142.4489      	1142.4065      	1142.4281      	1142.4048      	1142.4491      	1142.4823      	1142.4734      	1142.4438      	1142.4757      	1142.4581      	1142.4901      	1142.4816      	1142.4598      	1142.533       	1142.4626      	1142.5986      	1142.413       	1142.4475      	1142.4752      	1142.4716      	1142.4124      	1142.4862      	1142.5144      	1142.5138      	1142.5422      	1142.3303      	1142.4315      	1142.4637      	1142.6423      	1142.7909      	1142.6968      	1142.5066      	1142.5464      	1142.5099      	1142.5294      	1142.5316      	1142.5471      	1142.546       	1142.6206      	1142.4866      	1142.6274      	1142.5327      	1142.6415      	1142.5652      	1142.6497      	1142.6512      	1142.6057      	1142.7411      	1142.654       	1142.439       	1142.515       	1142.5685      	1142.7748      	1142.5725      	1142.5656      	1142.596       	1142.5377      	1142.5157      	1142.5494      	1142.5469      	
1142.4878      	1142.4576      	1142.4949      	1142.5645      	1142.6193      	1142.8331      	1142.815       	1142.5083      	1142.5266      	1142.4626      	1142.5186      	1142.4677      	1142.4523      	1142.4794      	1142.5073      	1142.4357      	1142.4688      	1142.5262      	1142.53        	1142.4758      	1142.4662      	1142.5017      	1142.4884      	1142.3885      	1142.535       	1142.4734      	1142.4231      	1142.4924      	1142.5934      	1142.2747      	1142.1875      	1142.3182      	1142.2697      	1142.4083      	1142.532       	1142.5151      	1142.6144      	1142.4938      	1142.5587      	1142.5491      	1142.6274      	1142.5553      	1142.5715      	1142.597       	1142.6027      	1142.5564      	1142.6343      	1142.5721      	1142.616       	1142.6163      	1142.6567      	1142.6412      	1142.5562      	1142.612       	1142.6125      	1142.601       	1142.5217      	1142.62        	1142.5068      	1142.702       	1142.6067      	1142.702       	1142.4346      	1142.6685      	1142.5854      	1142.4976      	1142.5763      	1142.585       	1142.6813      	1142.6895      	1142.7573      	1142.5631      	1142.5803      	1142.5573      	1142.5967      	1142.5549      	1142.5657      	1142.5812      	1142.6052      	1142.5768      	1142.6271      	1142.616       	1142.6552      	1142.6157      	1142.6472      	1142.6003      	1142.6199      	1142.644       	1142.6333      	1142.5961      	1142.6212      	1142.6256      	1142.5964      	1142.5944      	1142.5889      	1142.5626      	1142.5392      	1142.5125      	1142.4829      	1142.4832      	
1142.5868      	1142.6925      	1142.6167      	1142.638       	1142.7325      	1142.8188      	1143.0248      	1142.6356      	1142.615       	1142.6382      	1142.6621      	1142.5619      	1142.604       	1142.6727      	1142.6588      	1142.6182      	1142.628       	1142.6001      	1142.5887      	1142.608       	1142.5859      	1142.6417      	1142.6697      	1142.5989      	1142.6311      	1142.6274      	1142.6577      	1142.6292      	1142.7039      	1142.6594      	1142.1671      	1142.3934      	1142.5643      	1142.5417      	1142.7034      	1142.6853      	1142.6774      	1142.7021      	1142.7495      	1142.6624      	1142.7202      	1142.7014      	1142.7263      	1142.7964      	1142.698       	1142.7781      	1142.7551      	1142.7551      	1142.7902      	1142.7539      	1142.6697      	1142.8201      	1142.7228      	1142.7886      	1142.5829      	1142.8875      	1142.7296      	1142.692       	1142.6261      	1142.7794      	1142.7244      	1142.7747      	1142.7006      	1142.7395      	1142.7627      	1142.7438      	1142.7563      	1142.7921      	1142.8566      	1142.671       	1142.6995      	1142.6737      	1142.679       	1142.7208      	1142.6825      	1142.7256      	1142.615       	1142.7228      	1142.7404      	1142.7137      	1142.7095      	1142.7604      	1142.7324      	1142.749       	1142.741       	1142.7877      	1142.751       	1142.7548      	1142.7665      	1142.7272      	1142.7483      	1142.736       	1142.7407      	1142.7786      	1142.6971      	1142.677       	1142.6569      	1142.5735      	1142.6355      	1142.7471      	
1142.5585      	1142.6079      	1142.5121      	1142.7777      	1142.6951      	1142.634       	1142.8872      	1142.7563      	1142.5822      	1142.6493      	1142.6008      	1142.6187      	1142.6245      	1142.6013      	1142.5645      	1142.6367      	1142.5565      	1142.5946      	1142.5917      	1142.6011      	1142.6133      	1142.5977      	1142.6155      	1142.6145      	1142.5842      	1142.6102      	1142.5985      	1142.6202      	1142.5956      	1142.7458      	1142.1459      	1142.4159      	1142.4354      	1142.5415      	1142.662       	1142.7238      	1142.8018      	1142.6993      	1142.7341      	1142.7585      	1142.7816      	1142.7828      	1142.7533      	1142.8005      	1142.7266      	1142.7806      	1142.9573      	1142.6893      	1142.9265      	1142.7632      	1142.914       	1142.8588      	1142.5048      	1142.9019      	1142.7549      	1142.8477      	1142.7798      	1142.8234      	1142.6628      	1142.7224      	1142.7615      	1142.843       	1143.032       	1142.722       	1142.7417      	1142.6956      	1142.7401      	1142.773       	1142.7183      	1142.7505      	1142.7306      	1142.728       	1142.7805      	1142.707       	1142.7249      	1142.8215      	1142.6849      	1142.8209      	1142.7852      	1142.7942      	1142.8308      	1142.8152      	1142.8069      	1142.8279      	1142.8373      	1142.8542      	1142.7931      	1142.8154      	1142.785       	1142.8075      	1142.8228      	1142.7843      	1142.7697      	1142.7732      	1142.704       	1142.778       	1142.6981      	1142.7158      	1142.7256      	1142.6792      	
1142.5098      	1142.4915      	1142.438       	1142.5836      	1142.5679      	1142.7382      	1142.787       	1142.7756      	1142.503       	1142.5333      	1142.4906      	1142.5366      	1142.4591      	1142.5576      	1142.4484      	1142.4849      	1142.5232      	1142.4774      	1142.4866      	1142.4694      	1142.4934      	1142.4642      	1142.5243      	1142.5078      	1142.547       	1142.5106      	1142.5459      	1142.5397      	1142.5182      	1142.7229      	1142.002       	1142.2827      	1142.4303      	1142.4365      	1142.5392      	1142.5848      	1142.5928      	1142.5966      	1142.6216      	1142.6866      	1142.4913      	1142.6161      	1142.6798      	1142.655       	1142.6873      	1142.6326      	1142.6388      	1142.728       	1142.7208      	1142.7175      	1142.5714      	1142.6187      	1142.5491      	1142.7097      	1142.6805      	1142.6202      	1142.6699      	1142.7368      	1142.6128      	1142.7871      	1142.5969      	1142.6107      	1142.5667      	1142.65        	1142.6034      	1142.6243      	1142.6212      	1142.5994      	1142.6282      	1142.6228      	1142.6434      	1142.679       	1142.6345      	1142.6835      	1142.6562      	1142.7009      	1142.6643      	1142.7256      	1142.6724      	1142.7374      	1142.7078      	1142.6996      	1142.6909      	1142.7065      	1142.7085      	1142.729       	1142.7216      	1142.7269      	1142.6932      	1142.6836      	1142.6722      	1142.7002      	1142.6682      	1142.6974      	1142.6399      	1142.7185      	1142.662       	1142.5673      	1142.4702      	1142.461       	
1142.4366      	1142.406       	1142.3903      	1142.4226      	1142.48        	1142.5074      	1142.7072      	1142.7528      	1142.4635      	1142.4016      	1142.4468      	1142.436       	1142.4315      	1142.4149      	1142.3627      	1142.3751      	1142.3853      	1142.3832      	1142.4084      	1142.3925      	1142.4093      	1142.3889      	1142.4208      	1142.4792      	1142.3657      	1142.4373      	1142.4358      	1142.4332      	1142.4467      	1142.5756      	1142.0022      	1142.1492      	1142.3157      	1142.3007      	1142.3668      	1142.5118      	1142.503       	1142.5786      	1142.5018      	1142.656       	1142.6685      	1142.5382      	1142.4948      	1142.5807      	1142.6189      	1142.4001      	1142.5399      	1142.6979      	1142.4662      	1142.7134      	1142.6104      	1142.5594      	1142.495       	1142.5393      	1142.5933      	1142.638       	1142.4968      	1142.4656      	1142.4839      	1142.4246      	1142.5118      	1142.4366      	1142.5037      	1142.464       	1142.5142      	1142.4717      	1142.5135      	1142.4846      	1142.5444      	1142.4968      	1142.5062      	1142.4811      	1142.51        	1142.5747      	1142.504       	1142.5347      	1142.5399      	1142.5128      	1142.5364      	1142.5597      	1142.5769      	1142.4944      	1142.5385      	1142.5428      	1142.5461      	1142.5526      	1142.5193      	1142.5194      	1142.5271      	1142.5145      	1142.4966      	1142.5109      	1142.4663      	1142.4749      	1142.4622      	1142.4702      	1142.4797      	1142.4288      	1142.3728      	1142.4015      	
1142.1693      	1142.231       	1142.1714      	1142.2253      	1142.3186      	1142.3757      	1142.5839      	1142.5226      	1142.1945      	1142.2212      	1142.2509      	1142.1785      	1142.2083      	1142.2218      	1142.2394      	1142.2268      	1142.2084      	1142.2472      	1142.2693      	1142.23        	1142.2496      	1142.2521      	1142.3003      	1142.3088      	1142.262       	1142.2717      	1142.2894      	1142.3126      	1142.2903      	1142.3009      	1142.3179      	1141.8091      	1142.0598      	1142.2267      	1142.2654      	1142.4084      	1142.3566      	1142.3997      	1142.4305      	1142.4188      	1142.5126      	1142.3442      	1142.4753      	1142.4626      	1142.4833      	1142.3817      	1142.4464      	1142.467       	1142.4708      	1142.6414      	1142.424       	1142.4366      	1142.4114      	1142.4216      	1142.4032      	1142.3984      	1142.4369      	1142.4146      	1142.4491      	1142.3677      	1142.4253      	1142.4285      	1142.4364      	1142.446       	1142.4473      	1142.455       	1142.4248      	1142.406       	1142.4626      	1142.4366      	1142.5087      	1142.4249      	1142.4277      	1142.4476      	1142.4695      	1142.4614      	1142.4994      	1142.4972      	1142.4661      	1142.4897      	1142.5374      	1142.4747      	1142.5276      	1142.5194      	1142.552       	1142.4983      	1142.5054      	1142.4553      	1142.471       	1142.4735      	1142.4702      	1142.4679      	1142.3811      	1142.4067      	1142.4718      	1142.3748      	1142.3772      	1142.343       	1142.3458      	1142.3058      	
1142.0048      	1141.9608      	1141.9735      	1141.9796      	1142.0391      	1142.0475      	1142.1193      	1142.3986      	1142.159       	1141.989       	1141.9496      	1141.9587      	1141.966       	1142.009       	1141.9835      	1141.9607      	1141.9337      	1141.9907      	1142.0002      	1141.9368      	1141.9622      	1141.9448      	1141.9896      	1141.9618      	1142.0146      	1141.9948      	1142.0078      	1142.0148      	1142.0569      	1141.99        	1142.0834      	1141.6199      	1141.9363      	1142.027       	1141.9689      	1141.9714      	1142.0597      	1142.1191      	1142.1722      	1142.1248      	1142.144       	1142.2222      	1141.955       	1142.1602      	1142.292       	1142.3309      	1142.1193      	1142.1312      	1142.1771      	1142.0431      	1142.0739      	1142.1704      	1142.1299      	1142.1357      	1142.1437      	1142.1213      	1142.1396      	1142.138       	1142.148       	1142.1193      	1142.0995      	1142.1316      	1142.1102      	1142.1205      	1142.133       	1142.159       	1142.1339      	1142.1001      	1142.258       	1142.3314      	1142.0048      	1142.1555      	1142.2391      	1142.189       	1142.2489      	1142.2639      	1142.1925      	1142.2018      	1142.2583      	1142.2134      	1142.2291      	1142.2174      	1142.2437      	1142.2214      	1142.2119      	1142.2496      	1142.2208      	1142.2097      	1142.2407      	1142.2572      	1142.1655      	1142.1733      	1142.2085      	1142.1937      	1142.1868      	1142.1554      	1142.1609      	1142.1758      	1142.1243      	1142.1091      	
1141.69        	1141.6907      	1141.727       	1141.6797      	1141.663       	1141.755       	1141.8004      	1142.0535      	1141.9734      	1141.6678      	1141.7001      	1141.6652      	1141.6935      	1141.7122      	1141.7238      	1141.6805      	1141.6908      	1141.6942      	1141.6436      	1141.7026      	1141.6838      	1141.6821      	1141.6868      	1141.6958      	1141.6646      	1141.7205      	1141.7249      	1141.723       	1141.7083      	1141.6898      	1141.7684      	1141.5973      	1141.6804      	1141.5498      	1141.5894      	1141.6672      	1141.782       	1141.7864      	1141.6447      	1141.9796      	1141.6909      	1142.0181      	1141.6633      	1142.0227      	1141.8019      	1141.7743      	1141.7382      	1141.8215      	1141.7692      	1141.8053      	1141.7871      	1141.7982      	1141.7775      	1141.8191      	1141.8195      	1141.7922      	1141.8469      	1141.8416      	1141.8109      	1141.8524      	1141.8655      	1141.8052      	1141.8456      	1141.8817      	1141.8387      	1141.8562      	1141.8433      	1141.885       	1141.9897      	1141.701       	1141.7048      	1141.8054      	1142.0526      	1141.9204      	1141.93        	1141.9393      	1141.9419      	1141.8983      	1141.9458      	1141.8495      	1141.9171      	1141.8833      	1141.8682      	1141.8992      	1141.8989      	1141.9371      	1141.8468      	1141.8872      	1141.8784      	1141.8308      	1141.8674      	1141.8538      	1141.8112      	1141.909       	1141.8319      	1141.8375      	1141.8442      	1141.7804      	1141.6703      	1141.6521      	
1141.7711      	1141.8063      	1141.7983      	1141.8213      	1141.8195      	1141.905       	1141.8323      	1142.076       	1142.1265      	1141.7921      	1141.7592      	1141.8529      	1141.7823      	1141.7239      	1141.811       	1141.7616      	1141.7722      	1141.8083      	1141.7653      	1141.8387      	1141.7983      	1141.7715      	1141.7988      	1141.8188      	1141.7523      	1141.7961      	1141.8167      	1141.7216      	1141.8055      	1141.8171      	1141.7606      	1141.8182      	1141.8741      	1141.5441      	1141.6372      	1141.8334      	1141.8414      	1141.8988      	1141.7009      	1141.9434      	1141.7505      	1141.8207      	1141.7717      	1141.7753      	1141.7771      	1141.7665      	1141.8179      	1141.7513      	1141.8104      	1141.7527      	1141.7306      	1141.7871      	1141.7811      	1141.7051      	1141.7156      	1141.7458      	1141.735       	1141.7019      	1141.7284      	1141.7053      	1141.7548      	1141.7424      	1141.7434      	1141.7769      	1141.6418      	1141.7556      	1141.7104      	1141.7966      	1141.7166      	1141.7845      	1141.7893      	1141.767       	1141.7246      	1141.797       	1141.7941      	1141.807       	1141.7272      	1141.7743      	1141.7559      	1141.7535      	1141.7577      	1141.7416      	1141.7898      	1141.7339      	1141.7875      	1141.7451      	1141.7994      	1141.7538      	1141.7247      	1141.7781      	1141.7129      	1141.7238      	1141.6583      	1141.7554      	1141.761       	1141.7192      	1141.7565      	1141.5519      	1141.5177      	1141.6676      	
1141.8943      	1141.8365      	1141.9247      	1141.8989      	1141.8107      	1141.9639      	1141.9954      	1142.1187      	1142.1873      	1142.0099      	1141.8293      	1141.8219      	1141.8723      	1141.8385      	1141.9722      	1141.7495      	1141.8364      	1141.8053      	1141.8387      	1141.814       	1141.8167      	1141.8329      	1141.8588      	1141.747       	1141.8849      	1141.8474      	1141.7573      	1141.7944      	1141.837       	1141.7981      	1141.8425      	1141.8229      	1141.8419      	1141.8583      	1141.9067      	1141.8173      	1141.8832      	1141.8875      	1141.9225      	1141.8855      	1141.8817      	1141.9535      	1141.849       	1141.9435      	1141.7922      	1141.9321      	1141.8287      	1141.8917      	1141.8331      	1141.8827      	1141.8473      	1141.863       	1141.8539      	1141.8849      	1141.8428      	1141.8475      	1141.8615      	1141.8163      	1141.8794      	1141.7811      	1141.9016      	1141.831       	1141.99        	1141.7727      	1141.7792      	1141.7856      	1141.8483      	1141.8513      	1141.8761      	1141.8868      	1141.9558      	1141.8107      	1141.773       	1141.884       	1141.7883      	1141.8387      	1141.848       	1141.8611      	1141.8132      	1141.8254      	1141.8593      	1141.8368      	1141.8417      	1141.7777      	1141.8196      	1141.8046      	1141.7742      	1141.7567      	1141.7325      	1141.802       	1141.7847      	1141.6676      	1141.796       	1141.6542      	1141.7004      	1141.7697      	1141.6437      	1141.6007      	1141.5715      	1141.586       	
1142.2007      	1142.2166      	1142.1987      	1142.2332      	1142.2029      	1142.1997      	1142.1714      	1142.4097      	1142.492       	1142.4681      	1142.1472      	1142.1279      	1142.1447      	1142.1215      	1142.1713      	1142.1696      	1142.1089      	1142.1597      	1142.1544      	1142.1643      	1142.1243      	1142.1339      	1142.1848      	1142.1217      	1142.2041      	1142.098       	1142.1511      	1142.117       	1142.1782      	1142.1301      	1142.1312      	1142.1205      	1142.1873      	1142.1316      	1142.1152      	1142.1044      	1142.1635      	1142.1572      	1142.1398      	1142.1786      	1142.1599      	1142.1901      	1142.1078      	1142.2013      	1142.1593      	1142.1681      	1142.1708      	1142.1785      	1142.1183      	1142.156       	1142.1339      	1142.1042      	1142.1056      	1142.1036      	1142.1118      	1142.0948      	1142.1554      	1142.1256      	1142.0948      	1142.1748      	1142.1312      	1142.1313      	1142.1038      	1142.1111      	1142.1244      	1142.1008      	1142.0845      	1142.1284      	1142.1462      	1142.1434      	1142.1909      	1142.1881      	1142.1261      	1142.1378      	1142.1366      	1142.1101      	1142.1106      	1142.0908      	1142.1217      	1142.0623      	1142.0408      	1142.0662      	1142.0913      	1142.0247      	1142.0557      	1142.0498      	1142.0728      	1142.0225      	1142.0073      	1142.0226      	1142.0359      	1142.0026      	1142.0087      	1141.9872      	1142.0249      	1141.9841      	1141.9595      	1141.8787      	1141.8268      	1141.8567      	
1142.5577      	1142.4939      	1142.5245      	1142.466       	1142.4727      	1142.5624      	1142.673       	1142.6776      	1142.8198      	1142.7087      	1142.5385      	1142.4312      	1142.462       	1142.4333      	1142.402       	1142.3785      	1142.3585      	1142.4042      	1142.4233      	1142.3293      	1142.3843      	1142.4493      	1142.3303      	1142.392       	1142.3956      	1142.3484      	1142.396       	1142.3634      	1142.4489      	1142.3855      	1142.388       	1142.4204      	1142.4114      	1142.4086      	1142.3925      	1142.424       	1142.4484      	1142.4315      	1142.4496      	1142.4552      	1142.3864      	1142.4259      	1142.4054      	1142.4581      	1142.4275      	1142.4282      	1142.4777      	1142.461       	1142.4036      	1142.368       	1142.4023      	1142.4006      	1142.4592      	1142.3821      	1142.4563      	1142.3524      	1142.3875      	1142.4241      	1142.3702      	1142.3865      	1142.3895      	1142.3809      	1142.3834      	1142.3977      	1142.4133      	1142.3989      	1142.421       	1142.4331      	1142.4558      	1142.4142      	1142.4568      	1142.4379      	1142.4478      	1142.4556      	1142.3934      	1142.4304      	1142.4028      	1142.3953      	1142.3778      	1142.4127      	1142.3906      	1142.3589      	1142.4093      	1142.3397      	1142.3384      	1142.3702      	1142.3424      	1142.3289      	1142.2697      	1142.2742      	1142.278       	1142.2782      	1142.2633      	1142.3013      	1142.2502      	1142.2424      	1142.2404      	1142.1901      	1142.2083      	1142.2405      	
1142.8208      	1142.8035      	1142.8013      	1142.7817      	1142.7806      	1142.8732      	1142.8237      	1142.852       	1143.1178      	1143.0566      	1142.883       	1142.7362      	1142.7382      	1142.739       	1142.7039      	1142.7153      	1142.7845      	1142.7189      	1142.7494      	1142.685       	1142.7325      	1142.7528      	1142.6512      	1142.7222      	1142.72        	1142.7491      	1142.6259      	1142.7003      	1142.7073      	1142.6497      	1142.7101      	1142.7998      	1142.7378      	1142.7146      	1142.7156      	1142.6716      	1142.7148      	1142.7466      	1142.708       	1142.726       	1142.7474      	1142.7446      	1142.7151      	1142.6959      	1142.7292      	1142.7303      	1142.6814      	1142.7104      	1142.7031      	1142.7106      	1142.7286      	1142.702       	1142.7095      	1142.6619      	1142.7045      	1142.7322      	1142.675       	1142.674       	1142.6941      	1142.6703      	1142.7234      	1142.7365      	1142.6895      	1142.7429      	1142.7268      	1142.7084      	1142.7561      	1142.7167      	1142.7515      	1142.7249      	1142.7642      	1142.7432      	1142.792       	1142.761       	1142.7935      	1142.7247      	1142.7377      	1142.7863      	1142.7758      	1142.6913      	1142.7         	1142.6617      	1142.6897      	1142.6681      	1142.6066      	1142.636       	1142.6486      	1142.6514      	1142.5719      	1142.6915      	1142.5842      	1142.5753      	1142.6216      	1142.6014      	1142.622       	1142.5962      	1142.6171      	1142.5471      	1142.5331      	1142.5461      	
1143.0682      	1143.0132      	1143.1177      	1143.1298      	1143.1012      	1143.045       	1143.053       	1143.0721      	1143.3097      	1143.3535      	1143.115       	1142.9973      	1143.0067      	1142.9922      	1142.993       	1142.9509      	1142.9757      	1142.954       	1143.0085      	1143.0175      	1142.9994      	1142.9393      	1143.0023      	1142.9746      	1142.9539      	1143.0066      	1142.9979      	1142.9927      	1142.9731      	1143.0239      	1143.0574      	1143.001       	1143.0177      	1143.0409      	1143.0199      	1142.9905      	1143.0408      	1143.0394      	1143.0815      	1143.0076      	1143.0295      	1143.0533      	1143.0405      	1143.0262      	1143.074       	1143.0295      	1143.0133      	1143.0624      	1143.0021      	1143.0317      	1143.0647      	1143.0627      	1143.031       	1143.0187      	1143.0323      	1142.982       	1143.0403      	1143.0245      	1143.0604      	1143.0198      	1143.0637      	1142.9985      	1142.9863      	1143.0555      	1143.0498      	1143.0828      	1143.0248      	1143.0509      	1142.9955      	1143.0382      	1143.0835      	1143.0192      	1143.0646      	1143.047       	1143.0383      	1143.0087      	1143.0012      	1143.0078      	1142.9576      	1142.9901      	1143.0146      	1142.9617      	1142.9375      	1142.9371      	1142.9805      	1142.9042      	1142.9587      	1142.9263      	1142.9529      	1142.8846      	1142.9197      	1142.8877      	1142.9061      	1142.9033      	1142.9048      	1142.8868      	1142.9247      	1142.8785      	1142.7811      	1142.7911      	
1142.8212      	1142.8309      	1142.9764      	1143.0732      	1142.8801      	1143.029       	1142.9868      	1143.0615      	1143.1766      	1143.2549      	1143.0203      	1142.9587      	1142.9456      	1142.9666      	1142.9469      	1142.9022      	1142.9706      	1142.9429      	1142.9453      	1142.9392      	1142.9434      	1142.9559      	1142.9252      	1142.909       	1142.9354      	1142.9623      	1142.9558      	1143.0012      	1142.9136      	1143.0184      	1143.0034      	1142.9701      	1143.0222      	1143.0156      	1143.0353      	1142.9946      	1143.0198      	1143.0681      	1143.0741      	1143.0138      	1143.0419      	1143.0187      	1143.0453      	1142.9382      	1142.9589      	1143.0104      	1142.9644      	1142.9913      	1142.9305      	1142.948       	1142.953       	1142.9841      	1142.9497      	1142.9968      	1142.9692      	1142.9517      	1142.9758      	1142.9755      	1142.963       	1142.9865      	1142.9612      	1142.947       	1142.973       	1142.988       	1143.0022      	1143.0215      	1142.9738      	1143.0446      	1143.0176      	1143.0078      	1143.0343      	1142.995       	1142.9695      	1143.0145      	1143.0056      	1143.0374      	1142.9478      	1142.9952      	1142.9695      	1142.9341      	1142.9303      	1142.9207      	1142.9376      	1142.9292      	1142.9043      	1142.9504      	1142.9565      	1142.9572      	1142.8918      	1142.97        	1142.9031      	1142.9116      	1142.9075      	1142.9132      	1142.9208      	1142.8503      	1142.9153      	1142.9667      	1142.8768      	1142.8175      	
1143.0741      	1143.0234      	1143.2572      	1143.1277      	1143.187       	1142.948       	1143.1218      	1143.1517      	1143.1993      	1143.1107      	1143.0118      	1143.0171      	1143.0427      	1143.0162      	1143.0048      	1143.0482      	1143.0057      	1143.0187      	1143.0247      	1143.0417      	1143.0513      	1143.0488      	1142.997       	1143.0173      	1142.984       	1143.0083      	1143.0176      	1142.9943      	1143.037       	1143.0115      	1143.0562      	1142.9891      	1143.0294      	1143.0123      	1143.0399      	1143.0829      	1142.9983      	1143.0546      	1143.0682      	1143.0304      	1143.0692      	1143.0063      	1143.0891      	1143.0038      	1143.0154      	1143.0327      	1143.0026      	1143.0018      	1143.0065      	1142.9823      	1143.0253      	1143.0028      	1143.0155      	1142.9753      	1143.0054      	1143.0338      	1143.0273      	1142.9777      	1143.0028      	1142.9878      	1143.0043      	1143.0325      	1143.0244      	1142.993       	1143.0253      	1143.0427      	1143.0222      	1143.0499      	1143.0717      	1143.096       	1143.0071      	1143.0474      	1143.0409      	1142.9976      	1143.0103      	1142.9833      	1142.9604      	1143.003       	1142.9478      	1143.012       	1142.9716      	1142.9623      	1143.0054      	1142.9585      	1142.9738      	1142.9656      	1142.9753      	1142.9597      	1142.9377      	1143.0265      	1142.9714      	1143.0125      	1142.9866      	1142.9719      	1142.9702      	1142.9656      	1142.9408      	1142.9342      	1142.9386      	1142.9568      	
1143.0598      	1143.0132      	1143.2126      	1143.0272      	1143.2784      	1143.0248      	1143.0323      	1143.0144      	1143.035       	1143.0007      	1142.9739      	1143.0028      	1143.0126      	1142.9934      	1142.9762      	1143.0344      	1143.0139      	1142.9578      	1142.9413      	1142.9353      	1142.9794      	1142.9716      	1143.0079      	1143.019       	1143.0046      	1143.0496      	1143.0343      	1143.0868      	1143.0409      	1143.0663      	1143.052       	1143.0546      	1143.0894      	1143.0641      	1143.0597      	1143.0281      	1143.0442      	1143.048       	1143.0808      	1143.0729      	1143.045       	1143.0204      	1143.0612      	1143.0148      	1143.0563      	1143.0466      	1143.0245      	1143.0128      	1143.0159      	1143.0397      	1143.0188      	1143.0115      	1143.0527      	1143.03        	1143.0447      	1143.0626      	1143.0526      	1143.0511      	1143.0254      	1143.0754      	1143.0593      	1143.0289      	1143.0731      	1143.0718      	1143.0956      	1143.0645      	1143.1003      	1143.0796      	1143.0968      	1143.0828      	1143.088       	1143.0785      	1143.0404      	1143.0461      	1143.0402      	1143.0266      	1143.0149      	1143.0317      	1143.0474      	1143.0372      	1143.0234      	1142.9866      	1142.9865      	1142.9758      	1143.0024      	1143.0038      	1142.9603      	1142.9576      	1142.9836      	1142.978       	1142.9575      	1143.0146      	1143.0051      	1142.9764      	1142.9891      	1143.021       	1142.8818      	1142.9042      	1142.9358      	1143.0145      	
1143.0435      	1143.2759      	1142.9341      	1143.0275      	1143.1721      	1143.0902      	1142.9803      	1143.0845      	1143.0925      	1143.06        	1143.0345      	1143.064       	1143.0662      	1143.0198      	1143.0717      	1143.1082      	1143.06        	1143.0359      	1143.0106      	1143.0232      	1143.0167      	1142.9524      	1142.9834      	1143.0488      	1142.9474      	1142.9418      	1142.994       	1142.9556      	1142.983       	1143.0151      	1142.978       	1143.0249      	1143.0168      	1143.0271      	1143.0588      	1142.9661      	1143.0397      	1142.9924      	1143.0099      	1142.9956      	1143.0161      	1142.9973      	1142.9963      	1143.0405      	1142.9891      	1142.9423      	1142.9852      	1142.9928      	1142.9711      	1142.9724      	1143.0052      	1143.0443      	1143.0087      	1142.9851      	1142.9989      	1142.9476      	1142.9749      	1142.9634      	1143.0126      	1143.0042      	1143.0396      	1143.049       	1143.0331      	1143.0679      	1143.0448      	1143.0548      	1143.0352      	1142.9714      	1143.0464      	1143.0449      	1143.0217      	1143.0189      	1143.0171      	1143.0007      	1142.9713      	1143.0078      	1142.9927      	1142.9806      	1142.9513      	1142.969       	1142.9733      	1142.9698      	1142.8944      	1142.9386      	1142.9844      	1142.9294      	1142.9152      	1142.9257      	1142.8911      	1142.9349      	1142.9153      	1142.8947      	1142.9789      	1142.9484      	1142.8774      	1142.9236      	1142.9303      	1142.8314      	1142.8212      	1142.8002      	
1143.1107      	1143.1506      	1143.1581      	1143.1482      	1143.1604      	1143.1903      	1143.1583      	1143.1555      	1143.1421      	1143.1405      	1143.1505      	1143.102       	1143.1406      	1143.0537      	1143.122       	1143.1116      	1143.0853      	1143.0999      	1143.1047      	1143.1119      	1143.041       	1143.0741      	1143.0938      	1143.0789      	1143.1105      	1143.1278      	1143.11        	1143.0757      	1143.159       	1143.1377      	1143.222       	1143.116       	1143.1624      	1143.1664      	1143.1577      	1143.2177      	1143.14        	1143.141       	1143.1616      	1143.1477      	1143.177       	1143.1698      	1143.1565      	1143.177       	1143.109       	1143.1359      	1143.1173      	1143.1354      	1143.1526      	1143.0748      	1143.1193      	1143.0964      	1143.124       	1143.1008      	1143.1603      	1143.1405      	1143.093       	1143.1018      	1143.1206      	1143.1752      	1143.1058      	1143.1008      	1143.1213      	1143.1462      	1143.1116      	1143.179       	1143.142       	1143.1099      	1143.1387      	1143.1388      	1143.1002      	1143.1191      	1143.1166      	1143.1194      	1143.1392      	1143.0891      	1143.1017      	1143.0857      	1143.0559      	1143.039       	1143.0441      	1142.9966      	1143.0356      	1143.0774      	1143.0406      	1143.0663      	1142.9945      	1142.9989      	1143.0116      	1142.9952      	1143.0265      	1143.0264      	1143.0289      	1143.0071      	1143.0249      	1143.0021      	1143.0555      	1142.9587      	1142.8584      	1142.9578      	
1143.4387      	1143.4366      	1143.4319      	1143.4287      	1143.3624      	1143.3542      	1143.4257      	1143.3181      	1143.3802      	1143.4087      	1143.3506      	1143.3499      	1143.3733      	1143.3345      	1143.3522      	1143.309       	1143.3357      	1143.3313      	1143.302       	1143.2885      	1143.2654      	1143.3016      	1143.271       	1143.2931      	1143.3917      	1143.187       	1143.2615      	1143.3632      	1143.3499      	1143.3739      	1143.3761      	1143.3566      	1143.3276      	1143.2982      	1143.3185      	1143.2882      	1143.3131      	1143.2938      	1143.2971      	1143.3113      	1143.2473      	1143.3186      	1143.3593      	1143.3662      	1143.1497      	1143.2844      	1143.2886      	1143.2572      	1143.3092      	1143.2405      	1143.3136      	1143.2178      	1143.3411      	1143.3173      	1143.307       	1143.2739      	1143.2769      	1143.296       	1143.2561      	1143.2765      	1143.3303      	1143.241       	1143.2987      	1143.3119      	1143.3206      	1143.2921      	1143.2583      	1143.2413      	1143.27        	1143.2571      	1143.2273      	1143.2937      	1143.2238      	1143.2482      	1143.1953      	1143.2853      	1143.1735      	1143.1838      	1143.188       	1143.1847      	1143.176       	1143.1827      	1143.1898      	1143.2089      	1143.1766      	1143.1361      	1143.179       	1143.1151      	1143.1421      	1143.1658      	1143.1288      	1143.1367      	1143.15        	1143.1447      	1143.16        	1143.1296      	1143.1172      	1143.163       	1143.1857      	1143.0438      	
1143.5804      	1143.6038      	1143.5985      	1143.5472      	1143.5435      	1143.5981      	1143.5945      	1143.5436      	1143.5854      	1143.5269      	1143.5139      	1143.5321      	1143.5498      	1143.5338      	1143.5305      	1143.5325      	1143.4937      	1143.5142      	1143.521       	1143.5236      	1143.4995      	1143.5388      	1143.4657      	1143.6083      	1143.6348      	1143.4099      	1143.4933      	1143.6163      	1143.5466      	1143.5792      	1143.5166      	1143.5527      	1143.5413      	1143.5513      	1143.5591      	1143.541       	1143.5608      	1143.5338      	1143.5004      	1143.5579      	1143.57        	1143.7312      	1143.3276      	1143.4207      	1143.594       	1143.5305      	1143.5005      	1143.4542      	1143.508       	1143.4952      	1143.4989      	1143.5128      	1143.5164      	1143.4995      	1143.5139      	1143.5028      	1143.5005      	1143.4908      	1143.4824      	1143.4781      	1143.463       	1143.5186      	1143.5115      	1143.4856      	1143.5161      	1143.5267      	1143.4698      	1143.4867      	1143.5212      	1143.4802      	1143.516       	1143.4436      	1143.514       	1143.494       	1143.4808      	1143.4529      	1143.4335      	1143.51        	1143.4609      	1143.4562      	1143.4796      	1143.4395      	1143.4026      	1143.464       	1143.4191      	1143.4808      	1143.3998      	1143.4342      	1143.3865      	1143.3899      	1143.3712      	1143.4108      	1143.4073      	1143.3267      	1143.3967      	1143.3813      	1143.4253      	1143.2694      	1142.8436      	1142.6241      	
1143.5448      	1143.4996      	1143.5254      	1143.4968      	1143.5018      	1143.4985      	1143.4595      	1143.511       	1143.5343      	1143.5005      	1143.4902      	1143.5164      	1143.5011      	1143.5382      	1143.4603      	1143.5067      	1143.4741      	1143.4766      	1143.4469      	1143.463       	1143.4767      	1143.4263      	1143.4978      	1143.4696      	1143.5223      	1143.4833      	1143.4893      	1143.4822      	1143.4764      	1143.526       	1143.5194      	1143.4797      	1143.5228      	1143.5549      	1143.5308      	1143.5087      	1143.4895      	1143.5208      	1143.4851      	1143.5577      	1143.4132      	1143.5715      	1143.3269      	1143.4686      	1143.6058      	1143.4984      	1143.511       	1143.4894      	1143.4884      	1143.4695      	1143.5427      	1143.4849      	1143.49        	1143.5127      	1143.5664      	1143.5563      	1143.6233      	1143.5387      	1143.55        	1143.5214      	1143.5354      	1143.5916      	1143.5178      	1143.5369      	1143.5073      	1143.5427      	1143.5239      	1143.5276      	1143.5228      	1143.5233      	1143.5109      	1143.5203      	1143.5588      	1143.4749      	1143.5114      	1143.539       	1143.4471      	1143.5118      	1143.4565      	1143.4559      	1143.5376      	1143.4777      	1143.5052      	1143.4558      	1143.4386      	1143.4766      	1143.4215      	1143.439       	1143.4705      	1143.4626      	1143.4863      	1143.4807      	1143.4985      	1143.4929      	1143.4622      	1143.4962      	1143.6085      	1143.2864      	1142.8116      	1142.6769      	
1143.419       	1143.4072      	1143.381       	1143.4358      	1143.4441      	1143.4093      	1143.4141      	1143.3787      	1143.433       	1143.3654      	1143.3682      	1143.422       	1143.3542      	1143.3489      	1143.2898      	1143.3163      	1143.3497      	1143.3694      	1143.345       	1143.3657      	1143.339       	1143.3481      	1143.3563      	1143.3728      	1143.3137      	1143.3904      	1143.36        	1143.3901      	1143.3931      	1143.3934      	1143.4344      	1143.4177      	1143.4141      	1143.3992      	1143.4354      	1143.3904      	1143.386       	1143.3896      	1143.3551      	1143.3647      	1143.3767      	1143.3944      	1143.374       	1143.3441      	1143.3687      	1143.3341      	1143.4114      	1143.343       	1143.3268      	1143.3849      	1143.3335      	1143.3416      	1143.3997      	1143.3378      	1143.3873      	1143.3806      	1143.4287      	1143.3845      	1143.3691      	1143.4207      	1143.3386      	1143.3899      	1143.3821      	1143.3799      	1143.3845      	1143.4149      	1143.3427      	1143.3676      	1143.3606      	1143.3116      	1143.3335      	1143.3583      	1143.3         	1143.3722      	1143.3676      	1143.3203      	1143.3372      	1143.3217      	1143.327       	1143.3068      	1143.3499      	1143.4088      	1143.4181      	1143.3724      	1143.3573      	1143.348       	1143.3699      	1143.3302      	1143.3704      	1143.3641      	1143.3203      	1143.38        	1143.3953      	1143.3218      	1143.3602      	1143.3282      	1143.5171      	1143.0503      	1142.5903      	1142.7406      	
1143.3372      	1143.3713      	1143.3179      	1143.3143      	1143.3124      	1143.287       	1143.3262      	1143.2833      	1143.2996      	1143.2872      	1143.2847      	1143.2327      	1143.2549      	1143.2609      	1143.2589      	1143.2932      	1143.239       	1143.2505      	1143.2252      	1143.291       	1143.2623      	1143.2943      	1143.2755      	1143.284       	1143.3079      	1143.2662      	1143.3281      	1143.2771      	1143.3579      	1143.3348      	1143.3325      	1143.3458      	1143.2507      	1143.3466      	1143.2979      	1143.334       	1143.3121      	1143.2712      	1143.3221      	1143.3175      	1143.276       	1143.2904      	1143.2562      	1143.296       	1143.2997      	1143.258       	1143.2681      	1143.2404      	1143.2863      	1143.2947      	1143.242       	1143.2899      	1143.3123      	1143.2821      	1143.2924      	1143.3184      	1143.283       	1143.2926      	1143.2932      	1143.3129      	1143.3141      	1143.2922      	1143.2693      	1143.2982      	1143.2784      	1143.2891      	1143.2816      	1143.2732      	1143.301       	1143.2952      	1143.2375      	1143.2446      	1143.2401      	1143.255       	1143.2615      	1143.2424      	1143.2023      	1143.2642      	1143.2151      	1143.2228      	1143.238       	1143.1935      	1143.2443      	1143.1931      	1143.2333      	1143.241       	1143.1816      	1143.1956      	1143.2065      	1143.2318      	1143.2228      	1143.2373      	1143.2238      	1143.259       	1143.2169      	1143.24        	1143.3372      	1143.0155      	1142.6335      	1142.5142      	
1143.3064      	1143.3033      	1143.2766      	1143.2665      	1143.2631      	1143.2909      	1143.2638      	1143.2604      	1143.2787      	1143.314       	1143.2466      	1143.2507      	1143.2268      	1143.2319      	1143.2501      	1143.2477      	1143.2631      	1143.2572      	1143.2765      	1143.2882      	1143.2548      	1143.2573      	1143.2787      	1143.2467      	1143.204       	1143.2278      	1143.257       	1143.2802      	1143.2712      	1143.2603      	1143.2843      	1143.2288      	1143.2795      	1143.2499      	1143.2891      	1143.2532      	1143.2734      	1143.253       	1143.1964      	1143.2175      	1143.2136      	1143.2418      	1143.2078      	1143.2322      	1143.239       	1143.2504      	1143.2231      	1143.2466      	1143.2506      	1143.2261      	1143.3118      	1143.2144      	1143.2334      	1143.2526      	1143.2704      	1143.2675      	1143.28        	1143.2712      	1143.2782      	1143.2772      	1143.2485      	1143.2415      	1143.2743      	1143.2654      	1143.2335      	1143.2557      	1143.2283      	1143.1995      	1143.3042      	1143.2411      	1143.2555      	1143.2367      	1143.2859      	1143.3278      	1143.2722      	1143.3071      	1143.2175      	1143.2112      	1143.2345      	1143.2458      	1143.2235      	1143.2201      	1143.2263      	1143.2534      	1143.2949      	1143.2024      	1143.1975      	1143.2433      	1143.265       	1143.2394      	1143.2094      	1143.2767      	1143.2328      	1143.2723      	1143.3589      	1143.1726      	1143.2661      	1143.2914      	1142.7717      	1142.5592      	
1143.4249      	1143.4476      	1143.4712      	1143.397       	1143.418       	1143.3914      	1143.3973      	1143.3458      	1143.3728      	1143.3683      	1143.3835      	1143.3539      	1143.341       	1143.354       	1143.3475      	1143.3376      	1143.3577      	1143.3538      	1143.3517      	1143.3069      	1143.3967      	1143.3812      	1143.3546      	1143.3346      	1143.3661      	1143.4175      	1143.3577      	1143.4131      	1143.3962      	1143.4055      	1143.3778      	1143.4073      	1143.3888      	1143.3622      	1143.3872      	1143.408       	1143.4052      	1143.4249      	1143.3652      	1143.3556      	1143.3824      	1143.3556      	1143.4054      	1143.3263      	1143.3411      	1143.37        	1143.3606      	1143.3417      	1143.4003      	1143.3883      	1143.3829      	1143.3507      	1143.4421      	1143.406       	1143.3741      	1143.418       	1143.3757      	1143.4171      	1143.4557      	1143.4242      	1143.341       	1143.3844      	1143.408       	1143.3777      	1143.372       	1143.3608      	1143.4019      	1143.3489      	1143.312       	1143.3182      	1143.3479      	1143.321       	1143.3333      	1143.3569      	1143.3475      	1143.3002      	1143.3514      	1143.3218      	1143.313       	1143.3269      	1143.3024      	1143.3236      	1143.3445      	1143.3345      	1143.3331      	1143.2958      	1143.3262      	1143.2991      	1143.3462      	1143.3298      	1143.3096      	1143.355       	1143.3596      	1143.3491      	1143.3489      	1143.3381      	1143.395       	1143.216       	1142.8243      	1142.6122      	
1143.6046      	1143.6029      	1143.5688      	1143.5934      	1143.5869      	1143.5626      	1143.5736      	1143.521       	1143.5214      	1143.538       	1143.5453      	1143.5143      	1143.5603      	1143.4784      	1143.5249      	1143.526       	1143.5536      	1143.529       	1143.5216      	1143.5594      	1143.5466      	1143.5392      	1143.5577      	1143.5977      	1143.5536      	1143.5818      	1143.5953      	1143.5555      	1143.5315      	1143.5925      	1143.55        	1143.5869      	1143.5676      	1143.5978      	1143.5184      	1143.5852      	1143.5778      	1143.4958      	1143.5171      	1143.4706      	1143.5153      	1143.5225      	1143.5356      	1143.5416      	1143.5325      	1143.5049      	1143.5284      	1143.5073      	1143.514       	1143.4934      	1143.5066      	1143.5173      	1143.5208      	1143.5707      	1143.5239      	1143.5349      	1143.5084      	1143.5334      	1143.5411      	1143.5387      	1143.519       	1143.4924      	1143.4761      	1143.5228      	1143.4862      	1143.4797      	1143.529       	1143.363       	1143.4357      	1143.5499      	1143.3754      	1143.1284      	1143.3694      	1143.3854      	1143.3242      	1143.3054      	1143.4052      	1143.4403      	1143.4542      	1143.4224      	1143.4612      	1143.4436      	1143.4397      	1143.4319      	1143.4396      	1143.43        	1143.4423      	1143.4188      	1143.4386      	1143.4338      	1143.4459      	1143.4772      	1143.4934      	1143.4904      	1143.476       	1143.4883      	1143.5776      	1143.4784      	1142.9855      	1142.8396      	
1143.5936      	1143.5801      	1143.5968      	1143.5544      	1143.5751      	1143.5906      	1143.6417      	1143.6027      	1143.5862      	1143.6066      	1143.612       	1143.6526      	1143.5966      	1143.6051      	1143.6053      	1143.6083      	1143.6381      	1143.6033      	1143.614       	1143.6316      	1143.6335      	1143.6171      	1143.6248      	1143.6367      	1143.6564      	1143.6366      	1143.6613      	1143.632       	1143.6245      	1143.6625      	1143.6354      	1143.6035      	1143.6177      	1143.6017      	1143.6503      	1143.6403      	1143.593       	1143.6675      	1143.5428      	1143.5641      	1143.634       	1143.5815      	1143.6741      	1143.6176      	1143.6229      	1143.6326      	1143.6365      	1143.6246      	1143.598       	1143.6534      	1143.5924      	1143.627       	1143.6177      	1143.6907      	1143.6395      	1143.646       	1143.636       	1143.6339      	1143.6014      	1143.6434      	1143.5942      	1143.6636      	1143.5157      	1143.609       	1143.6515      	1143.2993      	1143.6093      	1143.4054      	1143.416       	1143.4575      	1143.3716      	1143.4894      	1143.5468      	1143.6655      	1143.6261      	1143.7732      	1143.8966      	1143.5962      	1143.5768      	1143.617       	1143.6205      	1143.5813      	1143.5172      	1143.5975      	1143.5763      	1143.55        	1143.5647      	1143.617       	1143.5419      	1143.6102      	1143.5587      	1143.5692      	1143.6241      	1143.6212      	1143.6038      	1143.6101      	1143.6925      	1143.521       	1142.977       	1142.8876      	
1143.6         	1143.5969      	1143.5856      	1143.5692      	1143.5647      	1143.5554      	1143.5742      	1143.5675      	1143.5697      	1143.5259      	1143.598       	1143.5887      	1143.6493      	1143.6522      	1143.6195      	1143.5994      	1143.5536      	1143.6295      	1143.622       	1143.6552      	1143.5975      	1143.6534      	1143.6517      	1143.6749      	1143.6395      	1143.647       	1143.6171      	1143.6731      	1143.634       	1143.6047      	1143.6552      	1143.5945      	1143.6294      	1143.5745      	1143.5847      	1143.6377      	1143.5704      	1143.6008      	1143.619       	1143.591       	1143.58        	1143.5764      	1143.6086      	1143.6333      	1143.6044      	1143.5802      	1143.6033      	1143.6329      	1143.6329      	1143.6025      	1143.6294      	1143.6326      	1143.6556      	1143.6259      	1143.6189      	1143.6431      	1143.6747      	1143.6558      	1143.6757      	1143.6462      	1143.6006      	1143.7953      	1143.3595      	1143.3528      	1143.2583      	1143.4567      	1143.5543      	1143.4955      	1143.5479      	1143.6149      	1143.5912      	1143.5765      	1143.5491      	1143.6674      	1143.6284      	1143.6528      	1144.0936      	1143.7632      	1143.5441      	1143.5376      	1143.5739      	1143.579       	1143.5344      	1143.5516      	1143.5382      	1143.5427      	1143.5944      	1143.6093      	1143.5546      	1143.606       	1143.6038      	1143.5627      	1143.6274      	1143.5977      	1143.6033      	1143.6279      	1143.6805      	1143.6158      	1143.1947      	1142.9568      	
1143.6038      	1143.5956      	1143.584       	1143.5804      	1143.6099      	1143.6174      	1143.5741      	1143.5968      	1143.5957      	1143.5354      	1143.6423      	1143.5957      	1143.6171      	1143.6115      	1143.5734      	1143.6151      	1143.6007      	1143.6493      	1143.6565      	1143.6077      	1143.6243      	1143.6073      	1143.6383      	1143.6198      	1143.6134      	1143.6346      	1143.6604      	1143.6284      	1143.6002      	1143.6388      	1143.6233      	1143.6215      	1143.5663      	1143.6462      	1143.6194      	1143.6173      	1143.6722      	1143.6028      	1143.5734      	1143.5973      	1143.613       	1143.5968      	1143.6201      	1143.5983      	1143.5864      	1143.5842      	1143.5912      	1143.6177      	1143.6306      	1143.573       	1143.5669      	1143.5403      	1143.6295      	1143.6768      	1143.6012      	1143.6633      	1143.704       	1143.4862      	1143.4563      	1143.6691      	1143.3419      	1143.4763      	1143.4452      	1143.5852      	1143.4961      	1143.5898      	1143.5579      	1143.5757      	1143.5933      	1143.6034      	1143.5581      	1143.5897      	1143.6743      	1143.4935      	1143.6486      	1143.6658      	1143.8665      	1144.0645      	1143.5847      	1143.5961      	1143.5603      	1143.6079      	1143.6102      	1143.5585      	1143.6418      	1143.6232      	1143.6239      	1143.6022      	1143.554       	1143.6239      	1143.6309      	1143.5831      	1143.6556      	1143.6964      	1143.6599      	1143.688       	1143.6968      	1143.7695      	1143.4879      	1143.2         	
1143.5857      	1143.5288      	1143.5748      	1143.5077      	1143.5588      	1143.5657      	1143.5002      	1143.5332      	1143.5624      	1143.4874      	1143.5809      	1143.5667      	1143.5255      	1143.5984      	1143.5955      	1143.567       	1143.6067      	1143.6022      	1143.6359      	1143.6544      	1143.6089      	1143.5791      	1143.6178      	1143.6337      	1143.607       	1143.6649      	1143.5887      	1143.5436      	1143.5886      	1143.5239      	1143.6182      	1143.5375      	1143.5568      	1143.5334      	1143.5245      	1143.5848      	1143.5103      	1143.6472      	1143.4379      	1143.4725      	1143.6235      	1143.5303      	1143.6104      	1143.5067      	1143.5757      	1143.5549      	1143.6184      	1143.6056      	1143.5587      	1143.5662      	1143.5782      	1143.5928      	1143.6459      	1143.4169      	1143.2429      	1143.3489      	1143.5415      	1143.434       	1143.4507      	1143.4949      	1143.4617      	1143.5054      	1143.5844      	1143.5417      	1143.5137      	1143.5522      	1143.5415      	1143.5344      	1143.5393      	1143.5059      	1143.55        	1143.4901      	1143.5476      	1143.5162      	1143.5474      	1143.545       	1143.8347      	1143.9447      	1143.6573      	1143.5125      	1143.5385      	1143.541       	1143.5066      	1143.5686      	1143.5774      	1143.5665      	1143.5842      	1143.549       	1143.5624      	1143.5594      	1143.5468      	1143.5955      	1143.5933      	1143.629       	1143.627       	1143.6464      	1143.6444      	1143.6792      	1143.311       	1143.113       	
1143.719       	1143.6863      	1143.6842      	1143.6774      	1143.7062      	1143.6697      	1143.6538      	1143.6681      	1143.6808      	1143.6296      	1143.6672      	1143.6865      	1143.7133      	1143.6404      	1143.7139      	1143.679       	1143.7268      	1143.6877      	1143.7034      	1143.7014      	1143.743       	1143.7462      	1143.7229      	1143.6809      	1143.7401      	1143.672       	1143.7219      	1143.6665      	1143.7112      	1143.6481      	1143.6848      	1143.6737      	1143.6853      	1143.6495      	1143.6792      	1143.677       	1143.6814      	1143.6982      	1143.6427      	1143.682       	1143.6255      	1143.696       	1143.6388      	1143.6249      	1143.6638      	1143.6658      	1143.6804      	1143.7529      	1143.7173      	1143.5966      	1143.469       	1143.4288      	1143.6316      	1143.5991      	1143.5353      	1143.5939      	1143.67        	1143.6512      	1143.6497      	1143.6577      	1143.6118      	1143.6515      	1143.6014      	1143.638       	1143.6311      	1143.6554      	1143.6053      	1143.6863      	1143.6799      	1143.6163      	1143.6575      	1143.603       	1143.5989      	1143.6095      	1143.6566      	1143.7528      	1143.8451      	1143.9191      	1143.8368      	1143.6259      	1143.6438      	1143.6132      	1143.6254      	1143.616       	1143.6208      	1143.6353      	1143.629       	1143.6633      	1143.6847      	1143.6431      	1143.685       	1143.6174      	1143.6617      	1143.7301      	1143.6693      	1143.7168      	1143.7072      	1143.673       	1143.6903      	1143.5714      	
1143.8876      	1143.8433      	1143.827       	1143.8132      	1143.8124      	1143.8469      	1143.8279      	1143.8202      	1143.8254      	1143.8254      	1143.8427      	1143.8387      	1143.8394      	1143.8845      	1143.8575      	1143.849       	1143.8557      	1143.8845      	1143.8843      	1143.8806      	1143.8965      	1143.8503      	1143.8466      	1143.8611      	1143.8527      	1143.8887      	1143.7911      	1143.8541      	1143.8672      	1143.8014      	1143.8286      	1143.8357      	1143.8728      	1143.8513      	1143.8319      	1143.8633      	1143.8632      	1143.8337      	1143.8494      	1143.8148      	1143.8197      	1143.7957      	1143.8279      	1144.0063      	1143.4679      	1143.5767      	1143.9226      	1143.7671      	1143.6682      	1143.7886      	1143.7821      	1143.7537      	1143.9552      	1143.7444      	1143.8322      	1143.8088      	1143.8495      	1143.8259      	1143.7839      	1143.8162      	1143.7336      	1143.8004      	1143.8369      	1143.6893      	1143.822       	1143.7948      	1143.7059      	1143.8063      	1143.7979      	1143.7964      	1143.8379      	1143.6003      	1143.7205      	1143.8784      	1143.7954      	1143.9094      	1144.0887      	1144.1278      	1144.0164      	1143.8094      	1143.778       	1143.8214      	1143.7938      	1143.7833      	1143.7872      	1143.7954      	1143.842       	1143.7753      	1143.8536      	1143.8402      	1143.8234      	1143.842       	1143.8558      	1143.8485      	1143.8596      	1143.8684      	1143.8606      	1143.7931      	1143.9026      	1143.9722      	
1143.968       	1143.9828      	1143.9879      	1143.9579      	1143.9943      	1143.9636      	1143.9884      	1144.0023      	1143.9546      	1143.9967      	1143.9773      	1143.9728      	1143.9978      	1143.9841      	1144.0454      	1143.9631      	1144.0135      	1143.988       	1143.9763      	1143.9999      	1143.952       	1143.981       	1143.9725      	1143.9928      	1143.9263      	1143.9722      	1143.9554      	1143.9598      	1143.9783      	1143.9733      	1143.8997      	1144.0142      	1143.8955      	1143.893       	1143.9629      	1143.9286      	1143.8593      	1143.9012      	1143.9358      	1143.918       	1144.012       	1143.457       	1143.7742      	1143.697       	1143.7319      	1143.837       	1143.9767      	1143.9431      	1143.9403      	1143.9255      	1143.938       	1143.9727      	1143.9956      	1143.9226      	1143.8978      	1143.9333      	1143.9128      	1143.8878      	1143.897       	1143.8767      	1143.8833      	1143.8508      	1143.9077      	1143.9365      	1143.8721      	1143.8876      	1143.9015      	1143.8611      	1143.8651      	1143.9719      	1143.8878      	1143.7853      	1143.9875      	1143.7794      	1143.8376      	1143.9312      	1144.0032      	1144.31        	1144.219       	1143.8965      	1143.8563      	1143.864       	1143.8306      	1143.8757      	1143.894       	1143.9176      	1143.9126      	1143.9149      	1143.9076      	1143.9597      	1143.917       	1143.9094      	1143.9618      	1143.9462      	1143.9982      	1143.9532      	1143.9833      	1143.979       	1143.9075      	1143.929       	
1144.2012      	1144.1542      	1144.1935      	1144.239       	1144.1606      	1144.2249      	1144.1984      	1144.2013      	1144.2034      	1144.1691      	1144.257       	1144.234       	1144.2524      	1144.2106      	1144.2136      	1144.1782      	1144.249       	1144.2233      	1144.261       	1144.2654      	1144.1946      	1144.2108      	1144.257       	1144.239       	1144.1713      	1144.1805      	1144.2018      	1144.2158      	1144.1544      	1144.1864      	1144.2054      	1144.1613      	1144.1677      	1144.1777      	1144.1534      	1144.1556      	1144.1807      	1144.1455      	1144.3179      	1143.8591      	1143.802       	1143.846       	1144.1317      	1144.0891      	1144.1779      	1144.1667      	1144.188       	1144.1482      	1144.1854      	1144.1958      	1144.1364      	1144.1412      	1144.1328      	1144.1055      	1144.1854      	1144.0779      	1144.0688      	1144.0897      	1144.096       	1144.0525      	1144.0867      	1144.055       	1144.0592      	1144.0593      	1144.1024      	1143.9854      	1144.0282      	1144.051       	1144.0066      	1144.0961      	1144.009       	1144.1096      	1144.1044      	1143.9784      	1144.07        	1144.1392      	1144.1464      	1144.2908      	1144.4016      	1144.0983      	1144.0206      	1144.021       	1144.0801      	1144.0099      	1144.0726      	1144.0599      	1144.0591      	1144.0876      	1144.0856      	1144.0653      	1144.087       	1144.1024      	1144.0918      	1144.1384      	1144.08        	1144.1035      	1144.1648      	1144.1062      	1144.0131      	1144.0656      	
1144.739       	1144.7142      	1144.7058      	1144.7437      	1144.7058      	1144.7177      	1144.7362      	1144.7638      	1144.719       	1144.7279      	1144.8029      	1144.736       	1144.7972      	1144.729       	1144.804       	1144.8077      	1144.659       	1144.701       	1144.8657      	1144.7296      	1144.7296      	1144.7273      	1144.7671      	1144.7245      	1144.7101      	1144.6836      	1144.6908      	1144.7268      	1144.7059      	1144.6802      	1144.6654      	1144.6226      	1144.6434      	1144.6974      	1144.6904      	1144.6777      	1144.7133      	1144.7012      	1144.4061      	1144.3132      	1144.4583      	1144.5121      	1144.6584      	1144.7404      	1144.6313      	1144.7231      	1144.6514      	1144.7396      	1144.673       	1144.6759      	1144.7036      	1144.6599      	1144.6292      	1144.6522      	1144.6407      	1144.6531      	1144.6366      	1144.5751      	1144.5778      	1144.6564      	1144.5872      	1144.6003      	1144.591       	1144.6035      	1144.6217      	1144.5835      	1144.5764      	1144.5718      	1144.608       	1144.593       	1144.5715      	1144.5814      	1144.6227      	1144.5465      	1144.5703      	1144.6521      	1144.7056      	1144.89        	1144.8511      	1144.7013      	1144.5422      	1144.5746      	1144.5442      	1144.5793      	1144.5786      	1144.6042      	1144.6115      	1144.6497      	1144.6174      	1144.5549      	1144.6642      	1144.5833      	1144.61        	1144.6067      	1144.5842      	1144.6025      	1144.6466      	1144.5376      	1144.5503      	1144.6184      	
1145.14        	1145.1249      	1145.1157      	1145.1521      	1145.123       	1145.1685      	1145.0845      	1145.1401      	1145.1366      	1145.1946      	1145.162       	1145.1599      	1145.1782      	1145.1067      	1145.2113      	1145.2332      	1145.0005      	1145.1254      	1145.2521      	1145.1552      	1145.131       	1145.161       	1145.1117      	1145.1151      	1145.1404      	1145.1013      	1145.1163      	1145.1201      	1145.1293      	1145.0885      	1145.0972      	1145.0747      	1145.0836      	1145.0667      	1145.1178      	1145.0852      	1145.071       	1145.2152      	1144.6855      	1144.6942      	1144.8536      	1144.9452      	1145.0321      	1145.085       	1145.0782      	1145.0815      	1145.0979      	1145.0619      	1145.134       	1145.1199      	1145.0631      	1145.0769      	1145.1643      	1144.993       	1145.0254      	1145.0498      	1145.0474      	1145.0135      	1145.0049      	1145.0073      	1145.0135      	1145.0372      	1144.9933      	1145.0249      	1145.0188      	1145.0057      	1145.0536      	1145.0513      	1145.0278      	1145.0372      	1145.0448      	1145.0491      	1145.0409      	1145.0017      	1145.0184      	1145.0607      	1145.1066      	1145.1531      	1145.4722      	1145.3         	1145.0349      	1145.0443      	1145.078       	1145.0469      	1145.0239      	1145.103       	1145.0374      	1145.0864      	1145.0962      	1145.0977      	1145.0986      	1145.1252      	1145.0812      	1145.2122      	1145.0598      	1145.1718      	1145.1573      	1145.1079      	1144.9904      	1145.0334      	
1145.0818      	1145.0437      	1145.0673      	1145.097       	1145.0331      	1145.113       	1145.0913      	1145.078       	1145.0958      	1145.1183      	1145.1262      	1145.0913      	1145.1476      	1145.0964      	1145.194       	1145.1688      	1145.1567      	1145.1213      	1145.1228      	1145.219       	1145.1901      	1145.1552      	1145.1268      	1145.1581      	1145.1431      	1145.1493      	1145.1343      	1145.1393      	1145.1189      	1145.1125      	1145.1248      	1145.2021      	1145.2036      	1145.1976      	1145.1791      	1145.2499      	1145.164       	1145.2983      	1145.0261      	1144.755       	1145.1001      	1144.9674      	1145.0919      	1145.1622      	1145.204       	1145.243       	1145.146       	1145.2329      	1145.1946      	1145.1821      	1145.202       	1145.2317      	1145.0981      	1145.0824      	1145.129       	1145.3026      	1145.1488      	1145.1226      	1145.2046      	1145.1659      	1145.1703      	1145.1521      	1145.1565      	1145.1827      	1145.1688      	1145.1565      	1145.1356      	1145.2219      	1145.1438      	1145.1923      	1145.194       	1145.199       	1145.172       	1145.1261      	1145.1936      	1145.1492      	1145.2811      	1145.2772      	1145.5231      	1145.5636      	1145.2102      	1145.1405      	1145.2625      	1145.2351      	1145.2034      	1145.19        	1145.2375      	1145.1798      	1145.2323      	1145.2136      	1145.2528      	1145.2563      	1145.2948      	1145.2512      	1145.2421      	1145.2306      	1145.2896      	1145.1941      	1145.1776      	1145.2377      	
1144.9384      	1144.9484      	1144.9747      	1144.968       	1144.9847      	1144.9546      	1144.9443      	1145.0586      	1144.9817      	1145.0167      	1145.0192      	1145.0018      	1145.0552      	1145.019       	1145.0302      	1145.0292      	1145.0519      	1145.0223      	1145.0095      	1145.0007      	1144.9991      	1145.0139      	1145.0325      	1144.9524      	1144.9917      	1144.9501      	1144.9706      	1144.9518      	1145.0144      	1144.9178      	1144.9866      	1144.9983      	1144.9388      	1145.0042      	1144.9536      	1145.0721      	1145.011       	1145.1053      	1145.0281      	1144.5665      	1144.7635      	1144.7932      	1144.7974      	1145.0149      	1144.9857      	1145.0514      	1144.9747      	1145.0701      	1145.0139      	1145.0112      	1145.0289      	1145.0135      	1145.0468      	1145.0691      	1144.9697      	1145.0066      	1145.0527      	1144.9646      	1145.0742      	1145.0759      	1145.0042      	1145.0376      	1145.0648      	1144.9446      	1145.0371      	1145.1262      	1145.0192      	1145.0815      	1144.9956      	1144.9785      	1144.964       	1144.9758      	1144.9279      	1145.0227      	1144.9889      	1144.9757      	1145.0763      	1145.1564      	1145.3115      	1145.468       	1145.0985      	1145.0409      	1145.0868      	1145.0538      	1145.1139      	1145.0743      	1145.1072      	1145.0674      	1145.0898      	1145.139       	1145.0917      	1145.0966      	1145.136       	1145.0984      	1145.1277      	1145.1077      	1145.1238      	1145.101       	1145.001       	1145.0591      	
1144.9794      	1145.0239      	1145.0577      	1145.0975      	1145.0288      	1145.0449      	1145.062       	1145.0493      	1145.0692      	1145.0848      	1145.082       	1145.1279      	1145.1345      	1145.0831      	1145.1141      	1145.0833      	1145.11        	1145.1332      	1145.0399      	1145.1646      	1145.0735      	1145.0343      	1145.0938      	1145.0154      	1145.0916      	1145.0792      	1145.0576      	1145.0643      	1145.0548      	1145.0428      	1145.085       	1145.0696      	1145.0825      	1145.0227      	1145.0438      	1145.1248      	1145.0144      	1145.1388      	1145.2896      	1144.66        	1144.8387      	1144.7915      	1144.8843      	1145.0283      	1145.0958      	1145.0847      	1145.0603      	1145.0948      	1145.1082      	1145.0286      	1145.0812      	1145.1166      	1145.0886      	1145.0616      	1145.0837      	1145.06        	1145.1183      	1144.9952      	1145.0732      	1145.0582      	1145.0387      	1145.079       	1145.0637      	1145.1042      	1144.9198      	1145.1632      	1145.0632      	1145.0338      	1145.0747      	1145.0624      	1145.0756      	1145.0735      	1145.0522      	1145.1095      	1145.0458      	1145.0725      	1145.1609      	1145.2766      	1145.3022      	1145.5125      	1145.304       	1145.1476      	1145.0808      	1145.137       	1145.1606      	1145.0729      	1145.1063      	1145.1384      	1145.1571      	1145.136       	1145.1832      	1145.1249      	1145.1425      	1145.135       	1145.1953      	1145.1606      	1145.2042      	1145.0704      	1145.0718      	1145.153       	
1144.8999      	1144.9263      	1144.9276      	1144.9215      	1144.9569      	1144.9784      	1144.9166      	1144.9408      	1144.95        	1144.9927      	1144.8484      	1144.6799      	1144.8893      	1145.0063      	1144.9149      	1144.7772      	1144.9728      	1144.9033      	1144.923       	1144.97        	1144.9653      	1144.9272      	1144.948       	1144.8984      	1144.9915      	1144.919       	1144.9608      	1144.9392      	1144.9174      	1144.9198      	1144.9174      	1144.9397      	1144.9524      	1144.9185      	1144.9701      	1145.0209      	1145.0012      	1145.0426      	1145.19        	1144.7135      	1144.7288      	1144.8567      	1144.7858      	1144.8226      	1145.0476      	1144.9849      	1145.0621      	1145.0529      	1145.0057      	1145.0486      	1144.9486      	1145.1326      	1144.9983      	1145.026       	1145.0613      	1145.0247      	1145.0178      	1145.039       	1145.0369      	1145.0043      	1145.0437      	1144.9757      	1145.0186      	1144.9958      	1145.0802      	1144.9728      	1145.0947      	1145.0256      	1145.02        	1145.0315      	1145.0219      	1145.0685      	1145.0457      	1145.0505      	1145.0416      	1145.0745      	1145.1646      	1145.2191      	1145.2462      	1145.4542      	1145.3295      	1145.1503      	1145.0814      	1145.127       	1145.1116      	1145.1488      	1145.1364      	1145.162       	1145.1788      	1145.1106      	1145.2302      	1145.1173      	1145.1692      	1145.2017      	1145.1691      	1145.1704      	1145.2006      	1145.1161      	1145.053       	1145.0786      	
1144.4419      	1144.4784      	1144.4653      	1144.4523      	1144.5021      	1144.4714      	1144.5243      	1144.3542      	1144.3307      	1144.2526      	1144.2468      	1144.4231      	1144.4591      	1144.5961      	1144.7053      	1144.6871      	1144.8993      	1144.5082      	1144.495       	1144.5319      	1144.535       	1144.5225      	1144.5215      	1144.5164      	1144.5546      	1144.5568      	1144.489       	1144.4855      	1144.531       	1144.4958      	1144.5087      	1144.5542      	1144.5468      	1144.5262      	1144.5386      	1144.5176      	1144.5704      	1144.5626      	1144.6555      	1144.25        	1144.2667      	1144.3895      	1144.367       	1144.3258      	1144.5647      	1144.452       	1144.5277      	1144.5752      	1144.6049      	1144.504       	1144.4956      	1144.6415      	1144.5447      	1144.585       	1144.5372      	1144.5885      	1144.5614      	1144.6028      	1144.5441      	1144.5582      	1144.5674      	1144.6102      	1144.6246      	1144.5981      	1144.6678      	1144.5903      	1144.5343      	1144.6655      	1144.6581      	1144.5948      	1144.6649      	1144.6111      	1144.673       	1144.6812      	1144.6646      	1144.6534      	1144.6852      	1144.7472      	1144.8241      	1144.9565      	1145.069       	1144.6606      	1144.6881      	1144.7499      	1144.6705      	1144.7085      	1144.7135      	1144.7146      	1144.7234      	1144.7664      	1144.6816      	1144.7367      	1144.7294      	1144.7771      	1144.7766      	1144.829       	1144.7748      	1144.739       	1144.6409      	1144.6481      	
1143.9042      	1143.9841      	1144.0197      	1143.4722      	1143.7623      	1143.7433      	1143.8723      	1143.9287      	1143.8533      	1143.8638      	1143.9164      	1143.9707      	1143.9111      	1144.0214      	1143.9937      	1144.1644      	1144.5304      	1143.9792      	1143.9377      	1143.9741      	1143.9397      	1143.9651      	1143.9617      	1143.9479      	1143.9172      	1143.9783      	1143.93        	1143.9408      	1143.9636      	1143.9979      	1143.9222      	1143.9614      	1143.9862      	1143.9653      	1143.9973      	1144.0007      	1144.0459      	1144.0669      	1144.0419      	1144.0831      	1143.6115      	1143.7874      	1143.7864      	1143.8745      	1143.9401      	1144.0022      	1143.9948      	1143.9785      	1144.0115      	1143.995       	1144.003       	1144.009       	1144.0529      	1144.0051      	1144.0044      	1143.9819      	1143.9619      	1144.0195      	1144.0035      	1144.0159      	1144.0592      	1144.0552      	1144.0049      	1144.072       	1144.0381      	1144.0463      	1144.0463      	1143.9991      	1144.1052      	1144.0668      	1144.0669      	1144.1046      	1144.0616      	1144.1016      	1144.091       	1144.1262      	1144.087       	1144.1985      	1144.1906      	1144.4116      	1144.62        	1144.2073      	1144.1669      	1144.1984      	1144.116       	1144.1819      	1144.1716      	1144.2664      	1144.1954      	1144.1963      	1144.2095      	1144.1298      	1144.1718      	1144.1692      	1144.1986      	1144.1907      	1144.1891      	1144.1245      	1144.0038      	1144.0239      	
1143.6448      	1143.4768      	1143.4778      	1143.4962      	1143.5405      	1143.5728      	1143.7053      	1143.6572      	1143.6346      	1143.734       	1143.6788      	1143.659       	1143.564       	1143.7072      	1143.7306      	1143.7476      	1144.0885      	1143.9025      	1143.7338      	1143.6637      	1143.6407      	1143.6552      	1143.68        	1143.638       	1143.6606      	1143.6853      	1143.6979      	1143.6321      	1143.6782      	1143.7014      	1143.6803      	1143.7091      	1143.7009      	1143.7139      	1143.7421      	1143.688       	1143.7687      	1143.7197      	1143.6962      	1143.8291      	1143.4377      	1143.4733      	1143.4921      	1143.5361      	1143.6125      	1143.6936      	1143.7156      	1143.7017      	1143.7592      	1143.7079      	1143.6089      	1143.6115      	1143.7917      	1143.6238      	1143.5763      	1143.8668      	1143.7207      	1143.69        	1143.739       	1143.6985      	1143.7131      	1143.746       	1143.6536      	1143.7638      	1143.7081      	1143.7483      	1143.8004      	1143.7272      	1143.7616      	1143.7631      	1143.753       	1143.7886      	1143.7646      	1143.8163      	1143.8386      	1143.8524      	1143.7831      	1143.8792      	1143.8878      	1144.006       	1144.2319      	1144.0168      	1143.787       	1143.8179      	1143.8293      	1143.7991      	1143.8118      	1143.7766      	1143.8406      	1143.8684      	1143.8276      	1143.9099      	1143.8379      	1143.7837      	1143.8531      	1143.8016      	1143.8315      	1143.7742      	1143.6926      	1143.7156      	
