# www.neaspec.com
# Scan:	 	Whitelight Imaging
# Project:	 	20251007_PS
# Description:	 	
# Date:	 	10/07/2025 13:44:09
# Scanner Center Position (X, Y):	[µm]	49.99	50.01	 
# Rotation:	[°]	0	 	 
# Scan Area (X, Y, Z):	[µm]	5.000	5.000	0.000
# Pixel Area (X, Y, Z):	[px]	100	100	1
# Interferometer Center/Distance:	[µm]	546.342	0.000	 
# Averaging:	 	1	 	 
# Integration time:	[ms]	5	 	 
# Wavenumber Scaling:	 	1.000000	 	 
# Laser Source:	 	4.5-15 µm nano-FTIR laser
# Detector:	 	R
# Target Wavelength:	[µm]	7.502	 	 
# Demodulation Mode:	 	Fourier
# Tip Frequency:	[Hz]	241,340.500	 	 
# Tip Amplitude:	[mV]	45.700	 	 
# Tapping Amplitude:	[nm]	76.624	 	 
# Modulation Frequency:	[Hz]	0.000	 	 
# Modulation Amplitude:	[mV]	0.000	 	 
# Modulation Offset:	[mV]	0.000	 	 
# Setpoint:	[%]	79.75	 	 
# Regulator (P, I, D):	 	4.206850	8.625812	1.000000
# Tip Potential:	[mV]	0.000	 	 
# M1A Scaling:	[nm/V]	0.426	 	 
# M1A Cantilever Factor:	 	1,000	 	 
# Q-Factor:	 	487.4	 	 
# Version:	 	2.1.11536.0
79.91549       	80.29449       	80.603485      	80.985695      	80.85799       	80.35826       	81.078476      	80.62588       	80.067375      	80.36156       	80.39263       	80.11884       	80.03181       	80.78418       	80.33722       	81.37724       	81.11547       	82.1601        	76.490425      	72.17547       	70.3002        	70.49883       	70.35711       	70.95426       	71.510414      	71.576065      	71.75887       	71.6615        	71.742134      	71.92537       	72.93555       	72.215996      	72.94948       	73.81885       	72.215454      	72.229744      	72.777115      	74.69045       	77.348564      	77.201256      	77.27636       	76.995026      	78.99805       	78.91748       	78.17682       	79.50963       	81.203125      	81.69484       	81.43691       	81.97842       	83.83312       	85.23582       	86.19566       	86.62631       	88.905495      	85.33326       	84.57993       	83.95362       	83.16423       	83.05532       	83.520836      	83.41831       	83.63236       	82.87036       	82.908424      	82.67545       	82.11897       	82.72418       	82.223564      	82.48121       	82.26828       	82.12915       	82.28578       	82.44828       	81.9676        	82.7531        	81.9062        	83.29784       	82.277275      	82.388916      	82.53215       	82.15923       	81.98325       	82.10309       	81.61744       	81.53094       	82.674034      	81.96247       	81.97318       	82.15345       	82.237175      	82.90365       	81.082         	82.70163       	82.40823       	81.41363       	81.354675      	82.98083       	82.039856      	81.82204       	
81.37002       	81.77317       	81.82253       	81.983376      	82.758865      	81.97047       	82.274605      	82.41365       	81.40936       	81.972595      	82.079765      	82.32389       	81.90005       	82.356094      	82.88352       	82.51265       	83.0067        	82.22745       	77.42235       	73.78712       	71.76117       	70.57996       	71.363914      	72.35816       	72.34423       	72.73953       	72.728355      	73.99014       	73.95852       	73.966446      	75.20489       	74.85533       	74.869446      	76.78809       	75.33477       	74.72627       	76.097664      	77.86147       	77.13025       	78.79682       	79.83105       	79.00544       	80.027885      	83.40002       	82.61952       	85.46297       	86.8156        	87.435455      	85.64724       	86.02436       	84.52669       	84.30657       	83.95663       	83.60613       	83.42864       	83.634186      	83.262985      	83.29116       	82.9468        	82.137764      	83.62141       	82.91339       	82.21499       	84.0783        	82.225044      	82.99393       	83.07584       	82.76268       	82.23023       	82.57621       	82.35956       	82.33878       	82.49308       	82.81217       	84.03396       	83.48604       	84.00633       	82.67201       	82.36268       	83.15712       	84.92211       	82.868805      	83.40621       	83.13443       	83.337074      	82.18889       	82.295425      	82.3236        	82.424866      	82.69879       	82.58196       	84.294334      	82.79413       	84.35146       	82.80561       	82.88201       	83.60192       	84.13167       	83.67479       	82.70367       	
81.282524      	80.82647       	81.561935      	82.42958       	81.904305      	81.96959       	81.86512       	81.617966      	82.32587       	81.70351       	81.4587        	81.548996      	82.319305      	81.80258       	83.94505       	82.38919       	81.97329       	82.431244      	78.72319       	74.493935      	72.78924       	70.8867        	70.45773       	71.28413       	71.969864      	72.082664      	73.31113       	74.53616       	73.9853        	74.90611       	75.61095       	77.1572        	74.40429       	76.36678       	76.5748        	75.92749       	78.08509       	79.30889       	80.411095      	82.128395      	82.29954       	84.70905       	86.40964       	87.56048       	87.00245       	84.770325      	84.170425      	82.383354      	82.920204      	82.41144       	83.31364       	82.48036       	83.28402       	81.15316       	81.63149       	81.34077       	83.06856       	82.58189       	80.96373       	82.503845      	83.40242       	82.44697       	82.54717       	82.25194       	81.76465       	81.98611       	82.04905       	82.82369       	82.06372       	82.96162       	82.06281       	83.336235      	82.55896       	82.31427       	81.72974       	82.338486      	81.94894       	84.951935      	82.582535      	82.57032       	83.872284      	82.73089       	82.280266      	82.590096      	82.55562       	81.95589       	81.96256       	82.43296       	82.25065       	82.69071       	82.21958       	82.753975      	84.25521       	82.72666       	83.18268       	83.0879        	81.60425       	81.69531       	82.3962        	81.99722       	
81.22794       	81.05306       	81.839966      	81.872406      	82.05149       	81.53043       	82.61246       	83.034615      	82.42313       	82.24489       	81.760574      	81.63421       	82.084816      	82.09098       	83.11801       	82.9289        	83.068825      	82.37617       	80.93293       	75.90841       	74.45278       	73.312874      	73.0754        	71.75836       	72.3793        	73.14227       	74.54821       	76.484474      	75.04389       	76.2472        	77.79613       	78.34209       	77.81675       	80.239         	79.363884      	79.28458       	81.734375      	84.01466       	86.14756       	88.92851       	86.33469       	85.356865      	83.638535      	85.00124       	83.40173       	84.13947       	84.37734       	84.22582       	83.70478       	83.60382       	83.25841       	84.032776      	83.54247       	82.83174       	83.835175      	82.9897        	82.12325       	82.70096       	83.99428       	83.12299       	83.03958       	83.77139       	83.35502       	84.11879       	83.053276      	82.81379       	82.85467       	83.122955      	83.25624       	82.41568       	83.70153       	82.59247       	81.96366       	83.18482       	83.11985       	82.949554      	84.22181       	83.09039       	83.395226      	83.343094      	83.21773       	83.751335      	83.130516      	83.16536       	83.45181       	82.26453       	82.84842       	83.02753       	82.487206      	83.88688       	83.42353       	82.68772       	82.63211       	82.358406      	83.98643       	83.53057       	82.61336       	83.35471       	83.92252       	82.2223        	
81.704735      	81.430954      	81.70254       	82.677315      	82.35932       	82.31873       	81.814354      	82.0944        	83.46505       	82.33643       	82.59143       	82.53253       	82.9994        	83.027534      	83.40079       	83.31432       	83.86816       	83.60614       	84.160095      	81.005135      	79.804695      	76.52187       	76.416336      	76.82734       	76.85179       	73.74861       	76.88737       	77.630585      	78.98642       	79.588875      	79.01089       	81.96855       	82.58415       	85.27153       	84.475365      	85.950424      	87.77689       	84.53337       	85.24092       	84.482994      	84.53749       	84.31007       	83.5796        	83.428955      	83.725525      	86.57012       	83.807076      	83.56267       	83.399574      	82.96063       	83.342995      	82.971535      	83.64069       	83.757774      	82.61932       	82.74895       	83.209564      	82.35464       	83.05537       	83.317345      	83.02255       	82.01719       	83.47424       	82.2747        	83.18432       	83.03104       	83.13164       	82.936455      	82.571655      	83.05111       	83.81955       	82.87499       	82.653984      	82.24375       	82.82282       	82.64493       	82.423965      	82.922806      	83.040436      	84.569435      	81.46433       	83.65085       	82.34588       	84.26391       	81.99822       	83.02821       	82.862816      	82.36715       	82.18541       	82.34363       	83.02382       	83.74832       	82.38684       	82.80775       	82.46732       	82.9326        	82.70852       	82.2316        	82.27222       	82.22917       	
82.63242       	83.63577       	83.384514      	82.50022       	82.81929       	82.85139       	83.729225      	82.78173       	82.5031        	83.438705      	83.80119       	83.19555       	83.43496       	83.30576       	83.199554      	83.21654       	83.60484       	83.461716      	84.771515      	85.24886       	83.56248       	80.88826       	79.882866      	80.61297       	79.29023       	78.64391       	80.91198       	82.494675      	83.40622       	84.60757       	85.50028       	87.09272       	87.31414       	85.044304      	83.67088       	83.966515      	83.53829       	83.00979       	84.46342       	83.02814       	82.5438        	83.78019       	84.34226       	83.16055       	84.24011       	83.05139       	84.67142       	84.55105       	83.005905      	84.74259       	83.9754        	83.76558       	83.577896      	83.15972       	83.61938       	84.9465        	82.09204       	83.51163       	84.41785       	83.95152       	83.55983       	83.47033       	83.66533       	83.994194      	83.85753       	84.33556       	83.62637       	84.22874       	84.30087       	83.41205       	83.80911       	84.337776      	82.79524       	82.798805      	84.10889       	84.98442       	82.67508       	83.47918       	83.60137       	83.30717       	83.56534       	83.20462       	83.139404      	83.25281       	84.08201       	84.034386      	83.507965      	84.01075       	82.52064       	82.25536       	84.513466      	83.44772       	84.35707       	82.55928       	83.47253       	82.68083       	82.938225      	82.79687       	82.89627       	83.43217       	
82.51184       	82.418846      	82.51291       	82.653145      	82.94097       	83.11739       	82.7093        	83.69672       	82.26298       	83.16262       	84.76293       	84.936646      	83.82416       	83.99989       	84.07238       	84.275536      	84.62584       	84.542175      	84.9747        	85.77473       	85.893616      	85.64252       	84.10516       	83.4973        	83.699615      	84.985565      	86.56337       	87.66237       	86.7549        	85.835815      	85.937645      	84.56358       	84.88041       	84.75744       	84.568665      	84.874115      	84.06976       	82.64698       	84.06671       	87.77457       	82.44386       	83.96327       	83.871185      	83.450424      	83.81925       	83.20074       	83.82186       	83.7           	83.16062       	83.6981        	83.92487       	83.99142       	84.54389       	83.57151       	83.18147       	83.88809       	82.70765       	82.83347       	83.413414      	84.11101       	83.68044       	84.014435      	83.66031       	83.26575       	83.84124       	83.7167        	83.758675      	82.83109       	83.488625      	83.49305       	83.063416      	83.01029       	83.7819        	83.231926      	83.78995       	83.02706       	83.21127       	84.085594      	82.840454      	84.46251       	83.59379       	83.21666       	83.020676      	85.51567       	82.35125       	82.788155      	83.52823       	83.737724      	83.55949       	82.613266      	82.84735       	86.74168       	83.06703       	83.125374      	82.637726      	83.90659       	82.36048       	84.12181       	81.92696       	82.3842        	
82.46797       	82.391975      	82.732475      	82.551125      	82.3587        	84.093056      	83.51105       	84.38312       	84.55904       	84.36657       	86.72851       	83.76088       	83.7824        	84.12892       	85.08486       	86.39953       	84.55447       	84.28945       	84.45718       	85.323586      	85.08429       	86.47665       	87.49043       	85.83923       	88.370735      	86.125435      	85.779305      	85.2306        	85.04124       	85.38661       	85.14621       	85.66863       	84.24983       	84.94723       	85.42626       	84.66036       	84.33435       	83.937035      	83.818         	87.152435      	82.88457       	84.27629       	84.98302       	84.8757        	84.68802       	84.034706      	84.99144       	84.7244        	84.027084      	83.88142       	83.9228        	85.29161       	84.06347       	83.972534      	83.39077       	84.21029       	83.6041        	83.81114       	84.71034       	84.53663       	84.209724      	84.80184       	84.06242       	84.57408       	84.331055      	84.08256       	84.31345       	83.75184       	84.55729       	83.49224       	83.880684      	83.676414      	84.26933       	83.24357       	83.72288       	84.2463        	83.742775      	84.108536      	83.517         	84.57849       	84.49157       	83.69502       	83.89984       	84.55899       	83.96259       	83.635345      	83.86952       	83.91851       	85.163605      	84.03057       	82.83594       	83.227066      	84.826164      	84.03299       	83.547134      	82.97372       	84.45657       	83.22586       	83.51618       	83.70269       	
81.25228       	80.69041       	80.7535        	82.94741       	85.74656       	83.39337       	84.27615       	84.80057       	83.35209       	82.74574       	83.54272       	83.47998       	82.14411       	84.3342        	83.526375      	83.06041       	83.517586      	83.86657       	84.3816        	84.40676       	83.13038       	83.44236       	85.72894       	83.472755      	85.32705       	83.55886       	83.55982       	84.90995       	84.25303       	82.70344       	83.0014        	84.17363       	83.425255      	83.202934      	84.05295       	82.708046      	82.40576       	83.53551       	83.03703       	83.061295      	83.00129       	82.800186      	83.66948       	83.09765       	83.08711       	83.13305       	83.02482       	83.05906       	82.73776       	83.06332       	83.04482       	83.693535      	82.70208       	82.94435       	81.62329       	83.380875      	83.66066       	82.88476       	83.655624      	83.27782       	82.5252        	83.01121       	82.96807       	83.12018       	83.9659        	82.67857       	83.26741       	84.00052       	83.560776      	82.63247       	83.27306       	82.757744      	83.60563       	83.117584      	82.85411       	83.35088       	83.06357       	83.14726       	82.17521       	83.58509       	82.95708       	83.23842       	82.60297       	83.27201       	82.579544      	82.38393       	83.20381       	81.727264      	82.37226       	83.292366      	83.93391       	82.179756      	83.17114       	82.040634      	83.375496      	82.23715       	82.99374       	82.72028       	82.202225      	82.78506       	
81.70849       	81.63073       	82.433495      	83.35918       	83.537094      	84.8771        	88.113976      	85.03249       	84.47294       	83.79843       	83.34496       	83.77126       	84.177734      	84.348434      	83.85063       	84.964325      	83.87362       	84.03514       	84.14144       	83.98372       	84.22962       	83.83423       	84.59175       	83.98589       	84.015465      	84.4031        	83.4984        	83.75044       	84.399635      	83.29973       	83.58984       	84.206116      	84.06534       	83.512436      	83.1279        	84.259         	83.2181        	83.62976       	83.59418       	83.335014      	83.66242       	83.34053       	83.41385       	84.65436       	84.01149       	84.458466      	84.001854      	83.87034       	83.62004       	82.446976      	83.02774       	85.14765       	84.466644      	83.666756      	83.60829       	83.938515      	85.02939       	83.63149       	84.80779       	84.42379       	83.59051       	83.69652       	84.2984        	83.80658       	83.45994       	84.23338       	85.82558       	85.84068       	83.7371        	82.983864      	83.24372       	83.1479        	83.10698       	83.7086        	82.95657       	84.15756       	83.31412       	83.67613       	83.45568       	83.38888       	83.65936       	83.3585        	83.075356      	83.165016      	83.89188       	83.25997       	83.34838       	83.35684       	83.489204      	83.29483       	83.06005       	83.14703       	83.97833       	82.842896      	83.48364       	83.28357       	83.03838       	83.22864       	83.2553        	82.60426       	
82.402626      	82.74478       	82.40625       	83.07722       	84.07105       	84.73865       	83.42694       	84.28054       	83.68736       	84.07983       	83.478874      	84.047714      	83.38508       	83.98434       	84.21324       	83.86257       	83.867546      	83.956894      	84.16531       	84.2898        	84.71599       	84.00549       	83.91919       	84.345535      	83.95859       	83.816154      	83.011406      	84.04403       	84.51137       	84.03088       	83.78958       	83.07793       	83.45713       	83.38511       	82.989456      	82.95384       	83.363205      	82.9216        	83.22653       	83.60683       	83.53064       	84.3334        	82.92905       	83.378456      	82.53654       	83.76262       	83.329765      	83.24057       	84.314384      	82.938         	83.30463       	83.64436       	83.12045       	82.57923       	83.1842        	82.99231       	83.36889       	83.03414       	82.41747       	83.33399       	82.92195       	83.46631       	83.25321       	83.266945      	83.15918       	80.76318       	82.21635       	84.88073       	83.1335        	84.24868       	83.82133       	83.215126      	83.95864       	83.097466      	82.70657       	83.13575       	82.980965      	82.74551       	83.00401       	82.78827       	82.662796      	83.12965       	82.38485       	83.27164       	82.95704       	82.10642       	83.281235      	83.246765      	83.32554       	82.21235       	83.04448       	83.38667       	82.42002       	83.80307       	83.29598       	83.30546       	84.158745      	82.239174      	82.45419       	83.64318       	
82.269005      	82.67586       	82.73508       	82.552124      	82.21242       	84.21902       	83.72905       	84.758286      	84.056274      	83.89726       	84.59257       	84.093254      	84.520546      	82.677475      	83.848305      	84.14783       	83.57401       	84.38291       	83.326515      	83.789474      	83.86178       	83.146126      	83.360634      	84.15591       	83.88933       	83.30107       	84.14915       	83.678894      	83.42544       	83.80648       	83.439705      	83.73754       	83.54717       	83.500725      	83.95594       	83.90782       	84.34469       	83.7109        	83.00343       	84.088806      	83.21679       	83.03061       	83.452354      	83.84157       	84.177185      	83.43255       	83.56146       	83.72374       	83.72111       	83.35751       	83.65645       	84.17528       	83.21357       	84.036804      	83.59881       	83.53574       	85.03029       	83.93104       	82.95732       	84.22867       	84.21757       	84.15883       	83.79171       	83.790764      	84.19134       	81.331         	80.32089       	84.40512       	81.499405      	81.02037       	81.51617       	82.08551       	81.57388       	82.50052       	81.972595      	81.33915       	82.02334       	82.639496      	80.97612       	81.96253       	82.37903       	82.04284       	83.00479       	82.55127       	84.15385       	82.22749       	81.440895      	81.784325      	81.598175      	82.123985      	81.10018       	81.29395       	81.4145        	81.71951       	85.7896        	82.83137       	84.17394       	83.54127       	83.1658        	84.825516      	
81.43934       	81.528305      	83.00755       	87.24372       	84.7594        	84.084274      	84.25684       	85.234825      	84.01136       	84.26447       	83.54534       	83.53458       	83.8336        	82.564926      	84.5552        	84.4613        	83.96889       	83.05618       	82.26879       	84.65556       	83.40476       	82.67062       	83.28376       	83.17479       	82.553116      	83.13512       	82.10205       	82.997215      	83.67392       	82.187874      	82.53615       	82.21245       	82.511635      	82.64224       	82.94835       	84.19286       	82.198166      	82.013176      	83.306015      	82.02316       	82.33264       	83.13348       	82.74852       	82.549385      	83.14755       	82.8625        	83.037926      	82.25857       	83.66713       	83.02469       	85.08355       	86.74024       	83.37604       	83.63503       	83.0703        	82.74076       	82.79842       	83.22493       	82.50797       	83.19855       	83.63743       	84.53578       	83.722305      	83.538055      	82.435936      	82.91527       	85.27938       	82.08715       	84.71453       	84.570114      	83.84488       	82.66048       	83.08826       	84.35846       	83.68972       	83.663956      	84.39279       	82.46479       	83.886856      	86.852455      	84.36171       	86.25763       	83.56777       	84.09509       	84.805664      	83.791916      	83.55621       	84.54649       	83.083275      	83.300995      	82.928505      	83.903824      	83.70426       	83.91103       	83.39461       	83.00318       	84.28445       	84.591934      	83.35709       	83.41224       	
82.41727       	83.20304       	83.87003       	84.027176      	83.632774      	83.13495       	83.799095      	84.73683       	83.8407        	84.60832       	84.52974       	84.3332        	83.75887       	83.55404       	84.31082       	84.135376      	84.65411       	83.47752       	84.161835      	84.79922       	83.27579       	84.463455      	84.27089       	83.8161        	84.00527       	83.187096      	84.29134       	84.01076       	83.54334       	83.66959       	83.52077       	83.56281       	83.29334       	83.8126        	84.03904       	83.79334       	83.89061       	84.617836      	83.230545      	83.89915       	83.54893       	83.22153       	84.18873       	83.86482       	84.19544       	83.73412       	83.627716      	83.85322       	84.213196      	81.59478       	84.53138       	84.798996      	83.39527       	83.15775       	83.27749       	83.8375        	82.84784       	84.18853       	86.16885       	82.299385      	84.363594      	84.680504      	83.43464       	84.3431        	83.67295       	84.33784       	84.08451       	83.94878       	84.94537       	83.62511       	84.45789       	84.13098       	83.904236      	83.44655       	84.275246      	84.132706      	84.01928       	84.40821       	83.92793       	83.84766       	82.94061       	85.03595       	83.63066       	83.035965      	83.54116       	83.81161       	83.87134       	83.91497       	83.647194      	84.00631       	83.88253       	84.370865      	83.9034        	84.21644       	83.34387       	84.40671       	83.5021        	84.06598       	84.49911       	84.184135      	
82.80272       	82.97404       	84.44578       	84.02509       	84.89187       	84.83796       	84.00522       	82.917465      	83.81965       	84.627235      	84.548515      	83.48696       	83.45053       	84.29597       	84.77258       	83.77039       	84.87419       	83.999596      	84.84739       	83.93423       	84.40151       	84.26183       	83.98019       	84.238815      	84.23721       	84.00752       	83.25597       	84.176956      	83.93064       	85.22633       	83.299545      	84.784164      	83.30888       	83.810844      	83.468475      	84.52078       	83.53836       	83.54774       	83.695786      	83.24539       	82.9644        	83.639305      	83.631096      	83.82119       	83.42968       	83.389084      	83.49964       	83.18125       	83.99951       	81.502174      	82.840256      	85.61403       	83.702675      	83.548325      	85.24417       	83.14612       	83.08343       	83.175545      	83.1946        	83.15921       	83.34794       	83.97789       	83.43821       	83.63004       	85.869156      	84.43123       	83.95755       	83.56851       	84.44392       	84.166336      	83.90973       	84.60218       	84.26476       	84.02982       	85.069435      	84.1382        	84.02094       	83.86632       	84.557976      	85.09101       	85.361626      	83.18956       	83.74751       	84.3815        	83.90295       	84.04694       	84.89902       	84.323166      	83.50851       	84.00323       	83.62638       	83.536156      	83.62468       	84.386765      	83.39208       	83.234375      	86.03665       	84.138794      	86.35781       	81.45834       	
83.19127       	83.014946      	83.05245       	85.35368       	85.33289       	84.18796       	84.67131       	84.839775      	84.6286        	84.03514       	85.081726      	83.495514      	84.70276       	84.48537       	84.493324      	84.116646      	83.83295       	83.873886      	84.98193       	84.25842       	83.72588       	84.54805       	84.51046       	84.36568       	83.34977       	84.51785       	83.95169       	83.43341       	83.59558       	84.06782       	84.171875      	84.97131       	84.0617        	83.48339       	83.61194       	83.88276       	84.222015      	84.18875       	83.240456      	83.55732       	84.06553       	83.6938        	84.197914      	84.612465      	83.58644       	84.14303       	84.48839       	83.38968       	84.142166      	83.51642       	84.77903       	83.74367       	84.33213       	84.13047       	83.876656      	83.77731       	83.68321       	83.0816        	83.80275       	84.0033        	85.03739       	83.96388       	83.58388       	84.643555      	83.97109       	84.31853       	82.93228       	84.05768       	84.26212       	83.92295       	83.78336       	84.0356        	83.62732       	83.68111       	83.994995      	84.184326      	84.41036       	83.64603       	84.77395       	83.962006      	84.19023       	84.6195        	84.02579       	83.34071       	84.47836       	84.04943       	83.90877       	84.371086      	84.17657       	83.513214      	84.46718       	84.04506       	86.40321       	82.47089       	81.250946      	78.953476      	76.57052       	75.3275        	74.5359        	73.48499       	
82.19579       	82.704666      	83.13789       	83.62573       	83.92372       	84.362305      	84.28688       	83.69816       	83.30021       	84.33614       	84.08239       	85.00384       	84.02914       	83.72613       	83.792496      	83.80448       	84.153465      	84.54355       	84.112625      	84.717415      	84.7736        	84.563965      	84.68979       	84.01439       	84.265526      	84.7062        	83.91777       	83.48181       	84.69632       	83.99486       	85.15592       	83.838425      	84.030266      	84.300255      	83.87398       	83.05056       	83.098465      	83.73872       	82.97304       	84.02422       	84.77157       	82.95984       	83.459946      	83.95073       	82.93317       	83.80648       	83.59082       	85.0252        	83.329735      	83.43886       	83.924545      	83.70249       	83.85308       	83.9705        	83.56001       	83.22586       	83.26938       	83.79706       	83.37632       	82.96715       	85.11864       	83.97049       	84.38564       	84.00915       	83.947784      	84.382835      	84.315506      	83.51471       	84.31601       	84.61106       	83.91636       	83.60155       	84.4167        	84.67555       	84.30335       	84.4155        	83.89138       	84.37303       	83.667206      	84.57784       	83.60297       	83.77214       	83.50661       	84.218925      	83.945244      	83.276085      	83.7452        	84.65597       	84.77967       	83.9242        	80.0244        	76.98266       	75.29676       	74.227295      	73.549484      	73.63179       	72.21962       	71.85297       	71.771866      	71.75318       	
82.21821       	82.20054       	82.83382       	84.77965       	84.92516       	83.2039        	84.63875       	84.00299       	84.87495       	83.65141       	84.414566      	84.10606       	83.56098       	84.96745       	83.56643       	84.41846       	84.20221       	83.847275      	84.003525      	83.61032       	84.432365      	83.688965      	84.10815       	83.99819       	83.69493       	84.79521       	84.11263       	83.18143       	83.32151       	82.49436       	83.113396      	84.16521       	82.82668       	83.93364       	85.41036       	82.82099       	83.85535       	83.35929       	84.67512       	83.07443       	83.20679       	83.23925       	83.431694      	84.030426      	83.78978       	83.63991       	84.77275       	86.99326       	82.86184       	83.70328       	83.85691       	83.3725        	83.85177       	83.66165       	83.74473       	84.05428       	82.854675      	84.32936       	83.961426      	82.81152       	83.5859        	85.468056      	83.6254        	83.899185      	84.117485      	82.97932       	83.774895      	84.327286      	83.28317       	83.89754       	83.65551       	84.02282       	83.95575       	84.02437       	84.10129       	83.6375        	83.35672       	83.34207       	83.715385      	82.971985      	83.29516       	83.41714       	82.9478        	82.60957       	83.61917       	85.78997       	82.879105      	83.313286      	77.95364       	73.8597        	72.81617       	73.116035      	72.134605      	72.03213       	71.60971       	71.18665       	71.75286       	72.08425       	72.23041       	72.1659        	
82.32652       	82.420494      	83.41127       	83.78122       	84.52022       	83.88189       	85.72429       	85.36218       	85.01707       	84.305725      	83.96224       	85.11298       	84.14265       	84.74993       	84.35648       	83.908226      	84.4706        	84.090096      	84.21031       	84.71877       	84.41343       	84.50416       	84.20524       	84.41333       	84.09981       	83.7342        	84.53272       	84.29919       	84.08745       	85.428734      	82.95927       	84.458305      	84.78672       	84.16682       	84.29092       	84.143524      	84.598526      	83.72098       	84.02008       	84.86029       	83.791         	84.53556       	84.80827       	83.78419       	84.271065      	83.65108       	83.36002       	84.335625      	83.921936      	84.00935       	84.51942       	83.35424       	84.815544      	83.73717       	84.33128       	84.39484       	84.53451       	84.37128       	84.96882       	82.84168       	83.36339       	83.948975      	84.458534      	84.81875       	85.16706       	84.61101       	83.798515      	83.80087       	84.22722       	84.24477       	84.05018       	84.34587       	83.95619       	84.68664       	84.67112       	83.72289       	83.55739       	84.60639       	84.80459       	83.37761       	84.14079       	83.77369       	83.85422       	83.54309       	83.196365      	84.63039       	84.61979       	75.72476       	72.08389       	71.296326      	71.67855       	71.00482       	72.41334       	70.87543       	72.1267        	72.00157       	72.87317       	72.808395      	72.46923       	72.31543       	
82.83359       	83.093025      	82.81221       	82.59166       	82.41826       	83.950035      	83.86094       	84.15711       	83.38705       	83.569595      	84.14322       	84.421844      	84.71693       	84.38917       	83.93132       	83.009285      	83.49268       	83.84432       	83.904816      	83.42444       	83.29513       	83.37209       	84.38088       	84.48903       	84.1983        	84.81514       	84.394226      	83.21909       	84.03364       	85.165634      	84.35266       	84.871254      	84.4419        	84.042656      	84.033165      	83.578926      	83.64122       	83.735756      	83.53798       	83.305084      	83.72897       	83.91098       	83.692474      	84.07395       	83.64999       	83.580376      	83.2142        	82.86315       	83.59675       	84.03419       	83.78034       	82.967575      	84.00246       	83.630196      	82.89143       	83.39839       	84.97809       	84.0091        	83.84838       	82.92235       	84.03705       	84.33032       	84.18645       	84.85981       	83.38947       	83.74132       	83.64595       	84.2995        	84.89867       	83.17722       	83.55585       	84.41838       	83.91847       	84.52583       	84.48141       	85.541664      	83.25853       	84.41239       	85.210945      	83.90259       	85.05611       	84.16548       	84.31314       	84.73997       	82.80502       	84.14722       	78.61653       	74.43277       	72.67878       	71.52356       	71.24597       	71.632935      	71.52734       	73.35036       	73.22531       	71.914154      	72.98957       	74.26672       	71.55955       	74.28963       	
82.69435       	82.97531       	83.83891       	84.07846       	83.568985      	83.7292        	83.18664       	83.3577        	83.476135      	82.93789       	83.075935      	84.08744       	83.20835       	83.67127       	83.64214       	84.09402       	83.34399       	83.50248       	83.02173       	83.30677       	83.85901       	83.7617        	83.54478       	84.36363       	83.73207       	83.75995       	83.807724      	82.544785      	82.97389       	82.912575      	83.22249       	82.74362       	83.337036      	83.49828       	83.18692       	82.86728       	82.71847       	83.474525      	86.101494      	86.0989        	83.762794      	83.94953       	83.64587       	83.892006      	83.12588       	83.48804       	83.41653       	83.77334       	83.615776      	83.550095      	82.82212       	83.6478        	83.48234       	83.83951       	82.9581        	83.48247       	83.266685      	83.108765      	83.02084       	83.35078       	83.435196      	83.443825      	83.06065       	85.05105       	82.48701       	83.183815      	83.34655       	84.235596      	83.8684        	83.23941       	83.06721       	83.466515      	82.85766       	82.5345        	82.930534      	83.08034       	82.55227       	82.85804       	83.50205       	82.700485      	82.52567       	83.51636       	83.51074       	83.54028       	82.24208       	83.100655      	79.18325       	74.67188       	73.00086       	71.35642       	70.91174       	71.23925       	72.08869       	72.79411       	71.96372       	72.178856      	73.80686       	73.40467       	72.61056       	73.15126       	
82.33845       	82.6969        	83.7487        	84.91748       	85.163895      	83.76029       	83.920166      	84.45181       	85.035904      	83.44755       	84.43943       	85.00249       	83.94848       	84.85013       	83.77671       	84.33866       	84.10798       	83.04477       	84.34642       	83.430405      	83.57091       	83.78229       	82.94054       	84.36872       	83.90171       	84.34193       	83.62312       	84.28878       	83.65427       	82.889656      	83.90962       	83.39888       	83.275085      	84.17954       	83.78881       	84.30061       	83.050064      	82.85508       	84.40829       	86.51595       	82.86787       	83.45594       	83.53714       	84.35635       	84.12034       	83.40838       	85.06138       	82.66173       	83.91995       	83.86579       	84.160774      	84.63304       	84.1807        	83.86409       	84.09368       	83.64853       	84.172745      	83.76613       	83.874146      	83.64668       	83.42719       	84.15687       	83.26421       	83.803085      	84.204895      	84.478         	83.16793       	83.927         	83.67369       	83.905014      	83.886154      	83.89233       	84.59119       	82.975624      	83.89414       	83.11888       	84.01216       	84.14052       	83.88933       	84.26705       	83.59601       	83.45518       	84.54821       	84.17558       	84.30611       	83.93478       	79.71667       	75.37116       	74.870964      	73.16102       	72.72349       	72.45371       	73.75001       	73.584885      	73.783066      	73.81257       	73.5162        	74.10135       	76.62763       	73.15523       	
83.02679       	83.18699       	83.33549       	83.59256       	83.75569       	83.347275      	84.54124       	83.18917       	84.08477       	83.81971       	83.53997       	83.69173       	83.963806      	83.99234       	84.36869       	83.41045       	83.61836       	84.28999       	84.28166       	84.456604      	83.73913       	84.08884       	84.35294       	83.736984      	83.77544       	84.0302        	83.878174      	83.69825       	83.11356       	83.885956      	83.25227       	82.92457       	83.59334       	84.22813       	83.58732       	83.58643       	84.98089       	84.27286       	83.36118       	84.86252       	84.91458       	83.74298       	83.888145      	84.09094       	84.240364      	84.78993       	83.37008       	84.32581       	83.887726      	84.34005       	84.31143       	84.55336       	84.50584       	84.51326       	84.59122       	83.93719       	83.889885      	83.69946       	83.43856       	83.04129       	83.66554       	84.8588        	84.34          	85.39987       	84.25408       	84.92404       	84.59051       	84.995         	83.74177       	83.766846      	84.23278       	83.98216       	84.750595      	83.730835      	84.46799       	84.0088        	83.8319        	84.3662        	84.25196       	84.23819       	83.37623       	84.15539       	84.772644      	84.162926      	84.31335       	84.769035      	80.05189       	77.18136       	74.993454      	73.065125      	72.843285      	72.57334       	73.22008       	73.96099       	74.66554       	74.40918       	75.52311       	73.29015       	74.23862       	76.19917       	
83.258095      	83.14843       	83.09321       	83.30337       	83.12677       	82.8941        	83.83304       	83.47033       	83.329865      	83.70349       	83.522         	83.79747       	83.07763       	83.41177       	83.61738       	82.97289       	84.36548       	82.720856      	84.23811       	83.31121       	83.498344      	83.856895      	83.06312       	83.23228       	83.19728       	84.04418       	85.37283       	83.72081       	85.14552       	82.84477       	82.489716      	83.03136       	82.8824        	84.48696       	83.06447       	84.039154      	83.89381       	83.69119       	83.43249       	83.782425      	83.28919       	83.06668       	83.42177       	83.00584       	83.32557       	83.88038       	83.837425      	83.99676       	83.49418       	82.70748       	83.10116       	84.000916      	83.31521       	83.84035       	83.89332       	83.705574      	84.08285       	84.364204      	84.510445      	84.41902       	84.32024       	84.4688        	83.84232       	84.3396        	85.04598       	83.34651       	83.97719       	83.197784      	83.93981       	82.90379       	82.63336       	83.5759        	83.197685      	82.74122       	83.389305      	83.498886      	82.66451       	83.03691       	84.993195      	82.74164       	83.45617       	83.24818       	83.56996       	84.122734      	83.97766       	83.47074       	82.91866       	77.15471       	75.15091       	73.31476       	71.736534      	71.80943       	72.91135       	74.23292       	73.761444      	74.396164      	73.526886      	75.13258       	73.50303       	76.1182        	
83.630905      	83.55128       	83.279366      	84.10179       	83.64961       	84.24482       	84.76026       	84.4675        	84.56518       	84.18165       	84.53303       	84.5295        	84.067894      	84.463326      	84.15309       	85.01934       	84.01863       	83.68596       	83.727776      	83.92883       	84.32458       	83.97121       	83.51316       	85.01312       	85.44127       	85.28352       	84.869125      	84.30779       	84.38837       	84.065216      	83.5151        	83.2352        	83.44259       	83.51818       	83.52156       	84.28689       	83.69118       	83.62814       	83.69895       	84.53817       	83.91106       	84.09747       	84.07739       	83.39425       	84.19774       	84.08391       	84.1975        	84.2835        	83.19546       	83.6636        	83.26014       	83.75432       	84.217766      	84.54877       	83.24619       	83.136154      	84.54333       	80.80957       	77.45168       	75.261734      	76.06797       	77.10429       	78.700775      	85.464485      	86.26563       	88.28678       	87.16129       	84.882484      	84.784164      	84.164154      	84.21643       	84.12926       	84.69872       	84.63174       	84.34135       	84.96624       	85.45332       	83.983765      	84.84349       	83.68048       	84.55742       	84.653175      	84.60173       	84.79981       	84.92287       	84.828445      	84.59569       	79.83045       	75.78282       	74.40372       	73.08197       	72.403885      	72.737976      	74.01714       	74.71943       	74.77526       	73.284004      	74.301414      	74.55291       	74.741585      	
82.714714      	83.03785       	84.58618       	85.76342       	85.4166        	84.433624      	84.73136       	85.20905       	84.101135      	84.59865       	84.03361       	84.47733       	84.17397       	83.62971       	84.567215      	84.38429       	84.16411       	83.75725       	84.89277       	83.73772       	84.533615      	84.04996       	83.86689       	83.60204       	84.42192       	84.16449       	84.1447        	83.70636       	84.10625       	83.36558       	83.06397       	83.02824       	83.32586       	83.24856       	83.916664      	83.56239       	83.52456       	84.1026        	83.25191       	83.89525       	83.520584      	82.932526      	83.04924       	82.72644       	84.42756       	83.78647       	83.9202        	83.0756        	83.637405      	84.43996       	83.09867       	84.50571       	83.755165      	80.47526       	78.118004      	75.60228       	74.024475      	73.434616      	72.15518       	71.05005       	71.01635       	71.70268       	73.55192       	79.83866       	83.550865      	84.3593        	88.38342       	82.98916       	83.55734       	85.46416       	83.78087       	84.59188       	84.49625       	85.158844      	83.75859       	85.2368        	84.126495      	84.33488       	83.41008       	84.81122       	84.12311       	83.92384       	84.70649       	85.50755       	85.24461       	84.196266      	84.8035        	82.476974      	77.77122       	75.39409       	73.63398       	72.69932       	73.76004       	73.73662       	74.32895       	74.68717       	74.56419       	75.14505       	75.35529       	74.70334       	
83.34423       	83.30887       	84.038864      	83.918884      	82.78764       	84.00734       	82.70331       	82.691086      	83.0982        	83.688126      	83.54585       	83.59457       	84.563286      	83.69403       	84.22925       	84.471375      	84.178         	83.43328       	83.69822       	82.9427        	83.56588       	83.12171       	82.909775      	83.29489       	82.90588       	83.667625      	83.825066      	84.03039       	82.787025      	83.702126      	83.194336      	83.56598       	84.23431       	82.3119        	83.10079       	84.33751       	83.53544       	83.80204       	83.616844      	83.391884      	86.76776       	84.16313       	84.580154      	86.10663       	82.695526      	84.00223       	83.96888       	84.33046       	84.32335       	81.078255      	77.56808       	74.990166      	73.217415      	73.503456      	72.245735      	71.77509       	71.45934       	71.35527       	71.162926      	71.05667       	71.31938       	72.31037       	74.64354       	77.43458       	84.869995      	83.761734      	85.617256      	84.030525      	83.66192       	84.54534       	83.79385       	84.401146      	83.83382       	83.94037       	84.72941       	84.72671       	83.36704       	84.333626      	83.49426       	84.02242       	84.55776       	84.26737       	84.17089       	84.14199       	85.065834      	84.841545      	84.9504        	83.292725      	77.313126      	75.17382       	73.59245       	73.11839       	73.47505       	73.67173       	73.98954       	74.39682       	74.54345       	75.19776       	74.54903       	74.146835      	
82.77078       	82.811134      	83.20262       	83.23061       	82.98046       	83.095505      	83.02589       	83.49238       	84.0877        	84.59936       	84.292984      	84.51685       	84.605644      	84.94636       	83.03027       	85.02951       	85.3927        	84.63407       	85.10557       	83.329544      	84.097725      	83.895584      	84.4118        	85.319595      	83.28142       	84.713615      	86.014305      	83.20193       	84.19171       	82.833374      	84.47331       	83.76392       	83.76452       	83.69988       	83.88699       	83.95505       	84.037834      	84.00826       	83.41378       	83.487305      	84.369965      	83.50926       	86.114624      	84.31349       	82.43183       	79.31795       	76.20942       	74.517235      	74.271324      	72.08587       	71.685295      	72.31631       	71.5166        	71.70382       	72.03614       	71.76543       	71.7081        	71.43044       	72.637955      	70.97713       	70.81879       	71.49897       	74.46835       	78.0021        	82.93297       	87.33281       	84.70802       	84.74619       	83.898026      	84.341866      	85.62939       	84.26694       	83.6345        	84.84089       	83.76074       	84.33522       	84.571785      	83.394875      	83.33543       	83.59526       	83.76989       	84.63341       	84.94556       	83.95437       	85.96073       	84.2718        	85.57682       	83.629555      	77.66308       	75.870094      	73.513794      	72.30736       	73.735176      	73.92042       	74.3255        	74.003944      	74.23583       	73.971436      	74.54293       	73.86678       	
82.344         	82.55739       	83.809715      	87.104195      	84.904816      	84.701805      	84.316154      	84.556786      	84.26465       	83.610245      	83.317986      	83.25038       	84.12993       	84.64884       	84.57889       	83.97791       	83.56076       	84.16636       	84.71504       	83.87282       	84.12476       	84.08025       	84.10792       	84.05847       	84.2968        	84.45855       	83.4519        	83.931114      	84.90298       	82.85898       	83.510826      	84.06515       	85.73058       	81.90765       	83.98111       	83.953354      	85.068146      	83.53022       	83.48884       	84.21951       	80.69345       	77.93079       	75.14843       	73.58398       	73.52547       	72.64514       	71.357704      	71.505424      	71.97236       	71.38012       	71.4674        	70.99496       	72.22351       	72.20082       	72.40132       	71.58666       	71.66826       	72.07427       	71.4159        	71.996864      	71.39832       	71.53791       	72.127075      	77.93575       	81.41707       	87.15419       	87.09717       	85.373474      	83.437645      	83.61933       	83.76241       	83.75081       	84.16424       	83.83005       	83.05408       	84.051605      	83.86502       	83.73491       	83.371544      	83.566826      	84.72228       	84.04401       	84.17657       	84.39899       	84.40232       	84.54035       	83.59976       	84.75371       	79.820786      	76.172424      	74.6895        	72.52856       	73.1175        	73.218025      	72.91398       	74.51763       	74.47596       	74.13459       	74.04857       	74.697075      	
82.46005       	82.46924       	83.67137       	86.91384       	87.81057       	84.89402       	84.439964      	85.1129        	85.28173       	84.255104      	83.84003       	83.80782       	84.23115       	83.60374       	83.89861       	84.44366       	83.41522       	83.9537        	84.29362       	84.032         	83.646095      	84.30236       	84.509895      	84.30688       	83.99586       	83.37627       	83.73179       	84.039154      	83.53824       	82.52228       	82.41593       	83.747246      	84.24973       	84.54294       	84.41582       	81.97847       	77.865005      	76.057175      	74.61166       	73.39988       	71.82225       	71.99791       	71.74817       	71.66283       	71.12838       	71.87989       	71.37582       	72.79734       	72.67099       	72.13221       	72.75268       	72.63891       	72.63551       	73.54792       	72.85435       	72.8794        	72.7949        	73.05623       	72.87782       	72.1684        	72.171684      	71.42852       	72.43131       	74.90825       	82.17615       	86.993004      	85.38642       	84.252686      	84.7543        	85.84095       	83.817154      	84.2478        	84.84839       	83.9243        	84.19122       	84.545784      	84.25024       	84.113686      	84.21486       	84.00156       	83.98231       	83.693794      	84.171104      	84.301186      	83.9589        	83.76257       	85.029884      	84.20582       	82.64658       	77.19553       	75.330635      	73.28266       	72.995995      	73.481224      	73.64904       	74.99055       	74.41771       	74.57667       	75.878006      	74.317276      	
81.992165      	82.12577       	83.00033       	82.91843       	85.48305       	86.33682       	84.13742       	84.910645      	83.848206      	85.03486       	84.06058       	84.22445       	84.32943       	84.19071       	85.1025        	84.117805      	84.16425       	84.221985      	84.75111       	84.41273       	84.14239       	84.108444      	83.866135      	84.66365       	84.564674      	84.1546        	84.5828        	84.61993       	85.09726       	84.14584       	83.30734       	82.62594       	79.5956        	76.825966      	74.436935      	73.477615      	71.93189       	72.26134       	71.48594       	71.15781       	71.3371        	71.416115      	71.32637       	71.51371       	70.78388       	71.72507       	71.823006      	71.79211       	72.73246       	71.891045      	72.63955       	71.94425       	72.53468       	73.151184      	73.22306       	73.55923       	73.36675       	72.462494      	73.76202       	72.19234       	71.48191       	71.50643       	71.810875      	72.58065       	80.09743       	87.65309       	85.229614      	84.76673       	83.49897       	83.93495       	83.53787       	84.29883       	83.52341       	84.80322       	83.99936       	84.87169       	83.88233       	84.04746       	83.53455       	83.63413       	84.287346      	83.926636      	84.45351       	84.24855       	84.84491       	86.30133       	83.76622       	84.16827       	83.753075      	77.82849       	74.9023        	73.864426      	72.67819       	73.34599       	73.91821       	74.08601       	75.19516       	74.743675      	74.81054       	74.35484       	
82.826614      	83.176445      	83.08328       	83.26254       	83.828865      	84.0103        	83.17943       	83.57723       	84.54075       	84.47251       	83.57503       	83.47165       	83.258156      	83.90594       	84.01387       	83.62295       	83.587364      	83.680954      	83.06297       	83.253555      	82.579666      	83.3962        	83.23897       	82.69728       	83.50359       	83.08897       	83.03816       	82.879974      	82.50616       	77.417465      	73.61345       	73.44941       	72.7909        	72.11287       	71.457         	71.42485       	71.319405      	71.41597       	71.55021       	71.204704      	71.05877       	71.41993       	70.96914       	72.18875       	72.84455       	71.63257       	72.300285      	72.62376       	72.09288       	73.425964      	72.994         	72.37109       	72.81787       	72.82532       	72.48319       	73.22992       	72.555214      	72.80488       	72.6455        	72.284744      	72.55461       	72.167366      	72.30432       	74.64159       	77.63795       	85.24866       	87.80394       	85.06466       	84.60606       	85.00937       	82.61375       	82.879295      	84.22475       	84.959984      	84.54764       	83.56711       	84.84857       	84.19382       	84.3096        	83.486664      	83.78177       	83.857994      	82.46797       	84.01636       	84.19811       	83.50188       	83.49233       	83.57144       	84.33001       	77.88736       	75.18123       	73.40597       	72.62551       	72.69053       	73.24802       	73.2866        	74.46127       	74.224266      	74.12834       	74.87648       	
83.13108       	83.30814       	84.0072        	84.05654       	83.728386      	83.47918       	82.36278       	83.32311       	83.03495       	83.70333       	83.38156       	84.3284        	84.33902       	84.65116       	84.31537       	83.07921       	83.51232       	83.13985       	84.34911       	84.25827       	83.33958       	84.241806      	83.26794       	83.69501       	84.115616      	83.36354       	84.29075       	80.43841       	73.54733       	70.9954        	70.702156      	71.25535       	71.50416       	71.344635      	71.501015      	71.78622       	71.058685      	71.995094      	71.6282        	71.681885      	72.48841       	71.64955       	72.30996       	72.24355       	72.01509       	72.36993       	72.10807       	72.740974      	72.509254      	72.964645      	73.48664       	72.16213       	72.80947       	73.386505      	74.02687       	73.89289       	73.19401       	73.346176      	73.49691       	72.543106      	71.79556       	71.850876      	71.24697       	73.081276      	75.53754       	81.19405       	87.46714       	84.339485      	84.16796       	85.0332        	82.68545       	84.29395       	83.82199       	83.75389       	83.916504      	83.41465       	83.809296      	83.609825      	83.82211       	83.17378       	83.22202       	83.73424       	84.461174      	83.33511       	83.91028       	82.8795        	84.582504      	83.4243        	84.72015       	79.019196      	75.91346       	73.85911       	72.48181       	72.65917       	73.036194      	73.21126       	73.95364       	73.64687       	74.60791       	74.18699       	
82.32885       	82.559814      	83.05981       	82.91048       	82.57712       	83.33386       	83.01501       	82.4979        	82.43163       	82.93052       	82.8975        	82.671104      	83.860146      	83.10922       	83.80502       	82.29449       	82.97533       	82.85413       	84.001915      	83.95667       	84.180244      	83.36887       	82.665474      	82.976105      	83.911804      	82.49981       	80.33437       	73.26943       	71.98776       	70.532974      	70.88579       	70.67528       	70.951515      	71.18997       	71.81981       	72.48747       	72.24301       	71.300064      	71.87416       	72.85708       	72.08164       	72.13099       	73.26902       	73.424866      	72.64033       	72.96658       	72.76095       	72.83275       	72.89917       	73.76954       	73.33744       	72.848076      	73.54274       	74.14745       	73.150276      	73.64575       	74.57092       	72.8075        	72.92371       	73.67769       	72.14348       	72.93396       	71.21104       	71.460495      	73.629425      	80.51748       	85.482216      	85.37565       	82.983345      	83.88562       	83.79935       	83.248955      	83.31925       	83.2503        	83.493004      	83.05616       	83.49612       	83.60951       	83.76894       	84.41793       	83.12641       	83.86506       	83.719536      	83.69644       	83.14864       	83.07285       	83.84057       	83.51468       	83.63324       	80.823364      	75.35237       	73.481636      	72.30363       	71.38689       	72.17399       	73.59358       	72.75889       	73.96568       	73.75991       	74.12524       	
82.73388       	82.87194       	83.49682       	83.758354      	82.80256       	82.53774       	83.06281       	84.11133       	82.301254      	82.97011       	83.51266       	82.535         	82.6353        	84.34289       	83.45361       	83.44234       	83.863884      	86.14457       	85.039795      	83.94973       	83.60458       	83.63355       	84.05454       	84.602356      	82.49213       	83.26458       	77.39969       	74.24249       	72.30941       	71.08883       	71.29398       	71.96042       	71.62638       	72.59391       	72.32638       	72.39258       	73.207886      	73.557076      	72.7325        	73.87684       	72.85516       	73.24962       	72.90329       	72.68766       	73.79161       	73.68011       	73.51061       	73.58886       	73.82996       	73.47168       	73.57663       	73.33379       	73.75797       	73.15709       	73.43355       	74.2333        	73.75906       	74.114685      	73.0612        	73.77029       	73.03093       	71.97969       	71.82983       	71.81277       	74.20303       	78.38431       	85.891335      	87.039246      	83.90691       	85.61234       	84.08826       	84.38072       	85.08591       	84.81246       	83.596634      	84.618706      	84.58843       	84.35688       	84.42303       	84.63699       	84.862564      	84.72641       	84.374695      	84.05209       	84.18918       	85.73314       	84.28931       	84.82453       	84.969246      	83.41015       	77.31413       	75.22704       	73.23787       	73.281944      	73.7806        	73.63114       	73.69109       	74.29706       	74.30506       	74.0762        	
84.008545      	84.24785       	83.693504      	83.28824       	84.36737       	84.55048       	84.693474      	85.5284        	85.41041       	83.937775      	83.705826      	83.95021       	85.15983       	84.30924       	84.609276      	84.830025      	83.53526       	83.27043       	84.46213       	82.553024      	83.020096      	83.76199       	83.62289       	83.77199       	83.60694       	84.01537       	78.22734       	74.584816      	73.24818       	72.18748       	72.201996      	72.676956      	72.92425       	72.05058       	73.61023       	73.34015       	73.28814       	73.433525      	73.2655        	73.24658       	73.424675      	73.54365       	74.08297       	73.43618       	73.778984      	74.866745      	74.056946      	75.22597       	75.464         	73.89364       	74.96402       	74.44299       	74.10656       	73.871826      	74.56519       	73.527466      	74.009224      	74.44616       	74.10809       	74.2135        	72.88878       	73.092705      	72.8824        	71.76246       	72.86334       	76.13349       	84.221565      	88.24458       	85.060715      	84.62864       	84.48272       	84.02493       	84.238396      	85.611176      	84.177055      	83.374504      	84.35611       	84.66746       	84.447296      	84.72113       	84.820335      	85.41679       	83.775276      	84.6104        	84.85476       	83.700676      	84.56919       	84.792404      	84.60134       	85.65486       	78.56644       	75.039345      	73.28379       	72.74406       	72.7226        	74.005615      	73.73909       	75.02357       	74.78095       	73.50725       	
83.31169       	83.70831       	84.0142        	83.71615       	83.89664       	83.159966      	83.10487       	83.878         	83.73164       	83.197235      	83.703156      	83.52765       	83.49006       	83.561775      	83.54692       	83.69789       	84.47976       	83.82168       	83.560585      	84.694984      	85.41111       	84.15802       	86.40219       	85.00727       	85.57636       	85.25446       	79.34855       	76.73947       	73.71437       	72.762344      	72.14042       	72.99632       	73.18793       	73.45228       	73.66587       	73.89215       	73.67052       	73.17229       	74.13595       	74.079506      	74.061424      	74.627754      	74.00673       	74.02033       	73.390724      	74.08519       	73.78979       	73.40307       	73.673584      	73.47512       	73.86285       	74.05346       	73.948875      	73.755615      	74.23095       	73.37354       	73.94139       	74.244354      	73.312614      	72.614975      	74.10453       	73.45875       	72.7508        	72.58298       	72.415016      	76.255875      	82.18091       	88.40556       	84.12159       	83.85283       	84.291435      	84.115845      	84.292656      	84.881516      	83.33407       	84.41887       	85.92793       	84.66465       	85.829956      	83.78498       	83.42829       	84.573425      	83.63809       	84.29032       	84.22917       	83.93033       	84.09662       	84.19138       	83.954956      	84.34425       	79.44953       	75.331566      	74.27874       	73.038666      	73.001854      	73.56649       	74.227         	74.42561       	73.91806       	73.05425       	
82.97041       	83.15066       	83.99631       	83.4299        	83.80209       	85.96313       	84.195694      	84.93083       	83.69604       	84.80351       	85.25094       	84.5136        	83.04656       	84.67623       	84.60685       	83.57964       	83.28409       	82.83712       	82.86401       	83.09519       	83.29984       	85.482155      	82.7766        	84.03125       	83.92751       	84.47791       	80.954956      	75.657745      	74.270546      	73.403145      	72.21886       	72.69471       	73.05873       	73.11422       	73.23937       	73.606865      	72.9187        	73.54554       	74.14982       	74.18054       	73.31948       	73.7362        	73.70848       	74.50224       	73.351875      	74.086235      	73.69864       	74.0958        	74.19185       	74.31657       	73.877426      	73.649124      	74.93926       	73.86029       	73.87902       	74.31705       	73.91503       	73.67588       	73.863976      	73.2948        	73.689964      	74.38135       	72.482475      	72.58764       	71.42149       	75.73605       	81.08371       	84.5003        	84.965996      	83.891716      	84.08991       	82.79489       	83.05448       	83.540886      	83.54371       	83.87309       	85.18387       	83.41257       	83.43389       	83.975945      	83.79385       	83.529076      	84.1835        	82.96224       	83.90198       	84.522285      	83.953094      	84.5628        	83.990425      	85.105705      	80.10845       	75.63374       	74.27805       	72.86779       	72.35844       	71.734726      	73.41779       	75.186844      	74.67778       	74.08341       	
83.277824      	84.544624      	85.904         	84.39191       	84.17288       	83.45275       	83.63494       	83.12945       	82.99459       	83.89049       	85.522156      	84.87461       	83.50702       	83.912094      	83.90176       	83.93787       	84.0314        	83.859985      	83.38114       	83.80432       	85.85754       	85.98524       	85.42946       	85.35113       	84.70215       	85.0992        	82.58291       	76.57935       	75.003044      	73.09237       	71.8042        	73.2503        	73.654755      	73.86317       	74.15717       	73.06254       	74.200005      	74.134705      	73.42708       	73.33074       	75.37349       	75.20367       	74.430374      	74.437614      	75.02529       	73.71369       	74.8976        	74.827515      	74.65179       	74.42173       	73.45862       	74.127945      	73.829414      	74.59404       	74.25327       	74.68126       	73.75626       	73.80291       	74.18093       	74.75172       	73.311424      	71.09338       	72.89935       	74.30678       	73.861595      	74.8765        	80.523674      	83.2428        	87.14759       	84.579414      	83.43682       	83.492065      	83.971054      	84.54859       	83.98512       	83.98023       	84.24047       	84.5343        	84.06319       	84.22817       	84.354004      	84.69647       	83.69363       	84.78461       	84.46496       	84.42065       	84.547516      	85.24216       	83.95758       	85.34891       	81.591385      	75.840096      	74.75313       	73.894485      	73.06291       	73.012985      	73.730316      	73.01742       	73.39844       	73.96558       	
72.77257       	73.810905      	77.85797       	85.145836      	88.29082       	86.22545       	84.28177       	84.363785      	84.80632       	84.63867       	84.35464       	84.69139       	83.37234       	84.47699       	84.44265       	84.38785       	83.80902       	85.30113       	85.972496      	84.159035      	84.49804       	84.330315      	84.18118       	85.049515      	83.71377       	85.07436       	85.1462        	79.22527       	75.36665       	73.519035      	72.97154       	72.733284      	72.3895        	74.54766       	73.4158        	73.84536       	76.34304       	74.07898       	74.49258       	73.8454        	75.359314      	76.44674       	77.287796      	75.16335       	75.007         	74.62459       	74.758995      	74.819496      	74.16295       	74.250015      	74.272804      	74.39204       	74.55522       	74.18857       	74.47469       	74.384636      	74.25438       	74.08654       	73.856544      	73.381134      	73.07212       	71.53527       	73.20871       	73.27497       	72.42325       	75.29197       	79.35273       	83.92153       	87.08701       	84.15516       	85.11862       	84.89604       	84.85926       	84.67576       	85.11322       	85.165085      	84.60676       	85.21377       	84.41623       	84.672806      	84.56945       	84.43666       	84.303444      	84.08633       	83.908226      	84.35406       	85.160484      	84.55859       	84.40357       	85.01574       	83.505974      	78.56351       	75.932526      	74.50859       	73.53663       	73.76877       	73.8387        	74.05857       	74.50456       	74.68815       	
70.75189       	71.87525       	74.73238       	79.87298       	88.1007        	85.29817       	86.31783       	86.44527       	85.267845      	85.941505      	83.80891       	84.79466       	84.602196      	83.14847       	84.58334       	84.20798       	84.51956       	84.5575        	83.93644       	84.00392       	83.93615       	84.06468       	83.63085       	83.89302       	83.98872       	83.828545      	85.038345      	82.09479       	76.56703       	74.81389       	73.13473       	72.70312       	73.27528       	73.44798       	74.26718       	74.06114       	74.810104      	73.928894      	73.88636       	74.51089       	73.93422       	73.98468       	73.878334      	73.71517       	73.93702       	73.66715       	74.70664       	75.10219       	73.89738       	75.139336      	74.405         	73.95773       	74.16298       	74.661766      	73.13667       	74.07486       	75.04457       	73.35335       	73.776436      	73.03089       	72.92244       	73.87947       	73.07309       	72.14669       	71.898735      	75.642044      	76.91223       	82.076065      	87.51488       	83.88088       	83.02238       	83.14991       	84.90685       	83.44014       	84.30787       	85.42759       	83.47506       	84.73335       	84.18705       	84.53018       	83.240585      	83.40078       	82.92639       	84.661896      	83.72093       	83.3917        	84.940895      	84.25453       	84.26324       	86.17486       	85.15546       	78.8283        	75.16541       	73.27746       	72.19861       	72.48165       	73.44763       	73.88989       	74.162025      	74.41537       	
69.93547       	71.208336      	72.797615      	78.72244       	87.097755      	84.63462       	84.62377       	86.707         	87.16676       	85.80715       	84.22249       	84.82674       	84.89738       	84.03619       	85.03261       	85.50256       	85.54429       	85.80407       	84.687126      	85.26701       	84.57737       	85.32703       	85.63587       	85.74031       	85.49908       	85.42432       	85.73737       	84.40306       	77.63206       	75.23473       	74.74732       	73.80021       	74.1857        	74.07454       	74.355576      	75.06031       	74.297646      	76.36096       	74.80041       	75.330124      	75.06915       	75.36446       	74.755356      	74.245514      	74.59147       	74.81451       	74.90981       	74.35964       	74.51937       	74.51175       	74.717766      	74.11417       	74.09172       	73.918365      	74.15329       	73.53646       	73.90687       	74.8172        	74.18772       	74.549934      	73.39302       	72.69093       	73.243454      	72.9337        	71.36015       	71.98286       	74.15939       	80.436874      	86.798134      	83.68308       	84.01223       	84.63633       	83.461426      	84.234215      	83.94139       	83.65792       	83.75866       	84.44729       	83.70904       	83.65158       	83.49567       	84.06303       	84.10586       	83.70556       	83.502686      	83.71054       	84.85342       	83.726906      	83.35036       	84.83167       	85.778694      	79.53329       	75.276085      	74.01219       	72.95934       	73.18383       	74.04005       	73.785255      	74.51314       	75.26152       	
70.76947       	72.42078       	74.89488       	79.1863        	84.430664      	88.17236       	84.16334       	84.44027       	85.792915      	82.445496      	83.96746       	84.26165       	83.928375      	84.57944       	84.25565       	83.94705       	83.46338       	85.09663       	84.392876      	84.141815      	84.478546      	85.07656       	84.443565      	84.86798       	84.8752        	85.358635      	84.7976        	85.29318       	80.77158       	75.7956        	74.30327       	73.094246      	73.23986       	73.236496      	72.85029       	74.20899       	75.49565       	74.496185      	74.85102       	74.50676       	74.80131       	74.471405      	74.57145       	74.337715      	74.222534      	74.84853       	74.536896      	75.2161        	74.83484       	73.92162       	73.64187       	75.434555      	74.78517       	74.82858       	74.30242       	74.61773       	74.32024       	73.97854       	74.48203       	74.071045      	73.30518       	73.692894      	72.9833        	71.63569       	72.207085      	71.86618       	72.77533       	78.34822       	86.82744       	83.823975      	84.28843       	84.83406       	82.97902       	84.589355      	83.44749       	84.56239       	83.57968       	84.35675       	83.84654       	84.62253       	84.01036       	83.88618       	84.060844      	84.793396      	84.26939       	84.61917       	83.95743       	84.74359       	84.5239        	85.019196      	85.25514       	82.56821       	77.175354      	74.39861       	73.213295      	72.36852       	73.189186      	74.15809       	74.050644      	74.874         	
70.32475       	71.04584       	73.02047       	78.09196       	82.65339       	85.55106       	84.11397       	85.10233       	85.598564      	84.271164      	83.630356      	83.57426       	83.93669       	84.351715      	86.05952       	83.36333       	85.07822       	84.20868       	85.20846       	85.80507       	82.98046       	85.33731       	83.99151       	83.70866       	83.98474       	86.2211        	85.4911        	85.36456       	82.46863       	75.88127       	74.40798       	73.81764       	73.47671       	74.1015        	74.38233       	74.16044       	74.132256      	74.70842       	73.85893       	74.600624      	73.932915      	75.02459       	74.563805      	73.54432       	74.33324       	75.26878       	73.947815      	74.02226       	73.533195      	73.82211       	73.918045      	74.26961       	74.940506      	74.791466      	74.334724      	74.45373       	74.74889       	74.54148       	73.71231       	73.520096      	73.27357       	72.991035      	72.15775       	73.68724       	71.520584      	70.95885       	72.16034       	76.05224       	82.93172       	84.4991        	84.06791       	83.61983       	84.10989       	83.18508       	82.585335      	84.52257       	83.3088        	84.69438       	83.45366       	83.96725       	84.48621       	84.14824       	83.25032       	83.40866       	84.23652       	83.90269       	84.682144      	85.51559       	83.5797        	84.223915      	85.29945       	84.788414      	77.28074       	75.26352       	73.779205      	72.9821        	73.23823       	73.75903       	74.015816      	74.53403       	
71.301094      	71.80545       	73.39216       	77.62013       	82.75355       	86.90978       	83.413925      	84.73515       	83.39347       	85.56832       	83.52154       	85.36951       	84.187195      	83.742516      	84.459076      	84.22602       	84.439354      	82.753944      	85.22661       	86.321144      	81.686905      	84.970375      	85.23931       	82.895294      	84.85735       	84.94404       	84.47228       	84.14825       	83.76823       	77.82146       	75.744255      	73.37956       	73.146065      	73.83283       	73.361946      	73.44388       	75.96668       	74.176636      	74.5945        	74.345665      	74.04775       	74.68844       	74.53866       	74.28169       	74.294945      	74.716415      	74.56852       	73.048065      	74.63773       	75.61629       	73.41839       	74.20253       	74.22044       	74.28795       	74.242325      	74.36048       	74.53691       	74.47135       	74.257935      	73.99973       	74.642105      	73.66133       	72.844         	72.91631       	72.344955      	71.57888       	72.24234       	76.85503       	81.56644       	87.183205      	83.807526      	83.20152       	83.29771       	84.16016       	83.91678       	84.25003       	83.863396      	83.497185      	85.668945      	82.06859       	83.35508       	83.38983       	83.43266       	82.76493       	83.277275      	83.23483       	84.297386      	83.352455      	84.13661       	84.00646       	84.63283       	85.88408       	79.87796       	76.03556       	74.53815       	73.72701       	74.22914       	74.47289       	73.9681        	74.00135       	
71.092125      	71.300644      	72.96181       	75.15773       	80.97774       	86.77129       	85.45915       	84.04322       	83.375374      	84.27982       	84.50131       	83.55193       	84.47404       	84.822914      	84.73675       	85.38872       	85.105         	84.78699       	84.04525       	86.1102        	83.677864      	85.38694       	84.947205      	85.08621       	84.72787       	84.7359        	84.69773       	85.00894       	85.34711       	78.892624      	75.02091       	74.26768       	72.654625      	73.85506       	73.98094       	73.72181       	74.3368        	74.30146       	74.241486      	74.99136       	76.25808       	75.98959       	74.568596      	74.45444       	75.24449       	74.36988       	73.816864      	73.888725      	75.02987       	73.95814       	74.11098       	74.19126       	74.133         	75.03645       	74.80395       	74.41541       	74.85361       	74.043655      	74.607185      	75.93504       	73.321075      	73.81031       	73.42775       	72.82082       	73.12683       	72.242744      	71.75597       	74.592575      	82.2671        	87.87556       	84.681946      	84.86103       	84.32173       	83.67142       	84.63018       	84.01768       	84.01506       	83.93742       	84.67634       	83.796         	84.7917        	83.8051        	84.76048       	85.25538       	84.14913       	85.43814       	84.404045      	84.73259       	85.42865       	85.1202        	85.25902       	86.562614      	80.551704      	75.92709       	74.410736      	73.22965       	72.745056      	73.12753       	73.062775      	74.12889       	
71.65152       	71.967896      	72.74251       	74.2843        	78.73952       	86.07749       	86.69711       	83.3802        	83.66482       	83.67776       	84.19136       	84.501595      	85.06767       	85.085495      	84.27953       	83.963585      	83.70908       	84.29616       	83.760185      	85.64145       	88.20409       	85.95947       	84.61009       	84.0688        	85.35442       	84.66044       	85.46263       	85.01188       	85.07461       	79.45025       	75.536415      	73.9964        	72.90668       	73.02859       	73.66226       	74.42879       	73.77504       	74.83895       	73.73658       	75.20415       	75.78767       	74.049576      	74.614044      	75.55094       	75.81231       	74.29176       	75.028564      	74.5988        	73.81643       	74.06775       	74.79565       	74.725174      	73.452034      	74.90112       	73.68035       	74.03561       	74.398026      	74.462074      	74.61815       	73.9776        	73.82693       	74.09906       	73.60573       	72.681274      	73.0205        	72.0356        	71.44581       	73.88458       	79.73992       	87.46168       	85.163605      	84.52221       	83.21311       	84.1892        	84.58885       	84.2495        	84.63499       	84.599106      	83.79625       	84.66478       	84.500015      	84.63196       	84.59077       	84.23074       	84.62157       	83.52502       	84.3297        	84.44808       	84.602425      	84.30886       	85.13616       	84.73354       	83.551285      	76.50028       	73.74839       	73.09685       	72.86438       	71.70933       	72.45169       	72.4714        	
71.086754      	70.83954       	71.88839       	74.45658       	77.23844       	84.17912       	86.67165       	84.59519       	83.47231       	83.95738       	84.27681       	82.93275       	83.58802       	84.05562       	84.386055      	83.18524       	84.76922       	85.32752       	86.0659        	84.67211       	83.937935      	82.548874      	84.35682       	84.18983       	83.98109       	84.82084       	86.821205      	83.16025       	85.26909       	78.14449       	74.67409       	73.90632       	72.76341       	72.34139       	72.444534      	73.35535       	73.70336       	74.650536      	74.10591       	74.90867       	73.88871       	74.23006       	74.38318       	74.975266      	75.55183       	73.81768       	74.54678       	73.46448       	70.89559       	70.51056       	70.894615      	72.698814      	75.21335       	74.482445      	73.19239       	74.03712       	73.625755      	73.4035        	74.358986      	72.978935      	73.22345       	73.858055      	72.42894       	71.84091       	71.90382       	70.921135      	70.92197       	72.17793       	76.688995      	83.14486       	85.131645      	83.21988       	82.772705      	82.9507        	82.65388       	83.46454       	82.297455      	82.492325      	83.40505       	82.36286       	82.717926      	82.89467       	84.10457       	82.598236      	83.40977       	83.08702       	83.1451        	83.23429       	83.38452       	83.90831       	83.68687       	83.42535       	83.50074       	76.83222       	75.75254       	74.82817       	74.42202       	72.39113       	72.5413        	73.13877       	
70.89188       	70.863754      	71.66743       	74.967964      	77.476425      	82.43388       	86.52012       	83.9593        	83.484474      	83.54083       	84.48015       	82.90605       	83.28773       	82.61823       	83.12944       	82.99376       	82.605225      	84.03709       	83.61813       	83.3573        	83.65793       	83.257416      	83.628174      	85.860565      	85.354965      	83.73978       	83.084366      	84.50851       	86.24896       	80.40604       	75.93946       	74.02266       	73.65812       	72.434044      	72.74162       	73.90674       	75.26912       	74.19674       	75.224625      	74.766205      	75.51638       	73.75637       	74.4429        	74.21652       	74.97003       	74.71343       	74.14339       	72.95902       	74.12988       	71.38789       	71.08296       	72.04298       	73.86658       	77.17052       	74.352776      	73.351906      	74.21274       	73.920586      	73.91954       	73.96843       	74.35733       	73.91764       	72.84255       	72.381905      	72.15329       	71.79499       	70.45409       	71.68734       	74.569115      	83.339615      	87.79648       	84.20604       	84.06317       	84.29097       	84.17901       	84.56829       	85.492775      	83.8439        	83.24749       	84.405945      	83.73375       	82.971504      	84.25632       	82.59437       	83.23123       	84.987305      	83.69613       	84.51214       	83.97829       	84.50004       	83.92819       	84.700386      	86.168106      	81.13726       	81.57797       	79.13343       	77.28035       	76.411224      	75.17611       	75.53735       	
72.078354      	72.29418       	72.682976      	75.22784       	77.3571        	80.240295      	86.88881       	85.62462       	84.72588       	84.31296       	84.56296       	84.501335      	84.74422       	84.742134      	84.92942       	84.32602       	85.57092       	84.50488       	85.1979        	85.0454        	84.66083       	88.43218       	85.33692       	83.97409       	83.602875      	83.86149       	85.186676      	85.10658       	84.894325      	83.88671       	76.443         	75.0393        	74.09811       	72.42595       	72.94922       	73.84251       	73.81913       	73.86415       	75.383736      	77.50314       	75.58307       	75.722015      	77.09294       	74.02943       	75.78741       	74.60349       	74.89475       	74.80674       	74.34176       	74.399574      	71.60095       	71.93052       	73.67194       	74.363304      	75.40314       	74.049         	74.158806      	74.4422        	75.1439        	74.26194       	73.49034       	74.21872       	74.11146       	74.03065       	73.395744      	72.1317        	71.75818       	72.12561       	74.194855      	81.45821       	87.04896       	83.686806      	84.20833       	83.26489       	83.98748       	84.158485      	84.29648       	85.265526      	83.54137       	84.11834       	83.81045       	83.46649       	84.13671       	82.932274      	83.4969        	84.999176      	84.00348       	84.80326       	87.215416      	83.7903        	84.1271        	84.29459       	85.77645       	85.39761       	86.41487       	81.675705      	80.55044       	80.820404      	78.875824      	79.1053        	
71.977844      	71.70077       	71.50781       	73.65819       	74.6587        	78.983215      	86.02983       	85.485886      	84.08293       	83.81585       	82.55086       	83.761635      	84.56301       	83.916214      	84.408005      	85.89649       	84.45664       	84.99727       	85.243034      	84.22973       	84.73263       	84.49911       	84.286194      	84.2328        	84.3987        	83.918         	84.2206        	83.729805      	84.64841       	85.456085      	78.05013       	75.54548       	74.16157       	73.06056       	72.89208       	72.80389       	74.479126      	74.82597       	72.04215       	74.224335      	75.88607       	72.93262       	75.63979       	74.555504      	74.683754      	74.83546       	74.30588       	73.20833       	73.56506       	73.60156       	74.02063       	74.57083       	73.68807       	74.01567       	74.207344      	74.40832       	74.6121        	74.30819       	74.31016       	74.48886       	73.64528       	73.51917       	74.02878       	73.803085      	73.26582       	73.65913       	72.09521       	72.48357       	74.90239       	77.94916       	84.921555      	87.55417       	84.70799       	83.73734       	83.41256       	83.58567       	83.77815       	84.28824       	84.47598       	84.20248       	84.7386        	85.242874      	83.83616       	83.134186      	83.47891       	84.26276       	84.0534        	84.04894       	85.82366       	83.40576       	86.095856      	87.183304      	85.349785      	85.1732        	86.31305       	85.83259       	84.19974       	84.243324      	82.07024       	84.51599       	
72.54336       	72.06775       	72.01996       	72.33895       	73.433945      	75.44521       	82.94156       	86.82222       	84.0984        	83.62608       	85.394775      	84.45662       	84.24166       	84.19479       	84.27252       	84.07017       	83.751686      	84.58856       	84.29869       	83.73281       	85.42303       	84.65603       	84.12228       	83.666084      	83.62595       	83.0225        	83.96877       	83.84902       	84.74488       	85.55869       	80.835785      	76.55404       	74.18743       	73.1646        	73.48861       	73.495514      	73.358         	74.19944       	73.914925      	74.09418       	74.142075      	74.74451       	73.93782       	74.47231       	73.95364       	73.64107       	73.74445       	74.681046      	76.35794       	72.8576        	74.409706      	74.49296       	74.295654      	74.75052       	73.84167       	74.87675       	74.746155      	73.38907       	74.04345       	74.312386      	74.58075       	73.34282       	73.89289       	74.77504       	72.4695        	73.20549       	72.64853       	71.908394      	73.77179       	76.951355      	81.3297        	88.42957       	84.6976        	82.97718       	83.51879       	83.122215      	82.985306      	84.347176      	83.68647       	84.08243       	83.84381       	82.67453       	84.103676      	84.14007       	84.810555      	83.63623       	85.203575      	83.05669       	83.30243       	84.85353       	83.7095        	84.209526      	84.224075      	83.74928       	85.259796      	83.76879       	84.17874       	85.341125      	84.02536       	84.797424      	
71.951065      	72.149445      	72.067696      	71.39878       	72.74905       	74.6321        	81.70953       	88.268906      	83.87336       	84.06989       	83.63975       	84.792435      	83.05961       	84.04229       	82.98293       	83.456154      	83.354355      	82.83235       	84.80991       	84.26373       	84.504906      	85.36852       	84.05203       	83.388145      	84.77709       	83.053474      	83.5043        	83.56286       	84.93904       	85.94801       	82.75413       	77.3352        	75.19664       	73.014206      	73.14238       	73.557236      	73.42138       	73.808655      	73.64646       	74.41351       	74.31078       	74.30046       	73.73191       	74.404686      	73.49505       	73.59503       	73.86962       	74.61563       	75.76651       	74.63254       	73.77258       	74.40146       	74.58851       	73.913315      	74.31621       	74.26206       	74.15146       	74.97915       	74.30274       	74.065155      	75.10809       	73.62511       	73.72688       	73.46841       	73.49941       	73.18081       	72.79362       	73.21971       	71.71395       	74.66628       	81.351         	85.64753       	84.5748        	84.04071       	83.55043       	82.821335      	83.92949       	84.05546       	83.74652       	84.1669        	84.54108       	84.364456      	84.11454       	85.327644      	83.06643       	83.15951       	84.63938       	84.38088       	84.36064       	84.39083       	83.32017       	85.73285       	85.08227       	83.63843       	85.739685      	84.89176       	84.39516       	84.19788       	84.36492       	84.992645      	
72.8039        	72.88147       	73.05598       	72.23294       	74.16869       	75.25551       	79.11113       	86.79584       	85.876434      	85.66656       	84.81237       	85.02542       	85.25974       	85.09476       	86.10996       	83.9209        	84.244         	84.770035      	84.763306      	85.13012       	85.17931       	84.35403       	83.28684       	84.88997       	84.599686      	85.407715      	83.82989       	84.74722       	85.153595      	85.14436       	84.532234      	77.92575       	75.12008       	73.08818       	72.77062       	73.281746      	74.40266       	74.02843       	74.0168        	75.10271       	75.306526      	75.310074      	74.555275      	74.69136       	75.36611       	75.45551       	74.35715       	74.92365       	74.24159       	75.271706      	74.941635      	75.14717       	74.780975      	75.03251       	75.292404      	74.52069       	74.52889       	74.81909       	74.84676       	74.70907       	74.5914        	74.82957       	74.07639       	73.996086      	73.20988       	72.45454       	72.5467        	71.71647       	72.40215       	73.35417       	80.24362       	85.29977       	86.54105       	83.12512       	86.1775        	83.615265      	83.61736       	85.1309        	84.173325      	84.130745      	85.4188        	83.758446      	84.679         	83.51948       	84.448586      	85.65332       	83.70519       	83.60445       	83.893875      	83.677956      	84.38956       	84.50818       	84.46053       	84.259735      	84.67425       	86.11917       	84.90544       	84.66248       	84.709915      	85.16374       	
72.27045       	72.90564       	72.50219       	71.67478       	73.1615        	75.21728       	78.425476      	82.964264      	86.912674      	84.30266       	83.60223       	84.88942       	84.10707       	84.47851       	84.71697       	84.46389       	84.9862        	84.9176        	84.24219       	83.77751       	85.042435      	85.39483       	83.81091       	84.11027       	84.47836       	85.06359       	84.531296      	84.793274      	85.01929       	87.4383        	83.68349       	77.58511       	75.1504        	74.38768       	72.98474       	73.47862       	73.14519       	73.59728       	74.41956       	74.526596      	75.023895      	74.43015       	74.59026       	73.786255      	74.3669        	74.94207       	74.66833       	74.9665        	74.33973       	74.07742       	75.00255       	74.7238        	74.27344       	74.208534      	75.5085        	73.909645      	73.58844       	74.86316       	75.3282        	73.8992        	74.74415       	73.6206        	73.44748       	73.28478       	73.30631       	72.32763       	72.22205       	72.64613       	72.867546      	74.71419       	77.35717       	83.570114      	88.33565       	85.41074       	85.13126       	84.700455      	84.14919       	84.786514      	85.243546      	84.761375      	84.07445       	84.895584      	84.49725       	83.87211       	84.68365       	84.72673       	85.22034       	84.05119       	84.69059       	84.69969       	83.93405       	84.01772       	85.05281       	82.641716      	86.20283       	90.35247       	85.446594      	85.42739       	84.80157       	84.44835       	
73.049416      	72.80657       	72.852905      	71.92682       	72.07002       	75.223656      	76.93045       	82.13022       	86.72321       	85.21143       	84.135605      	83.79813       	83.45626       	83.35418       	83.48104       	83.51498       	83.80797       	83.87693       	83.1365        	83.527         	83.74908       	84.396614      	83.68618       	83.78509       	84.1371        	83.34586       	84.13769       	83.71481       	84.477104      	84.21905       	84.40826       	78.63182       	75.64265       	73.40474       	72.4987        	72.46571       	73.360466      	73.03144       	73.6124        	74.57839       	73.67769       	74.22488       	74.29425       	74.286415      	74.29675       	73.90309       	75.023125      	74.27027       	74.39189       	74.52654       	73.796394      	73.71629       	73.97437       	74.32909       	74.62238       	73.53627       	74.43289       	74.188545      	73.83252       	73.638695      	73.595215      	73.80198       	73.48175       	73.14512       	73.38172       	73.9037        	73.532455      	74.338         	75.20855       	75.10175       	74.319214      	75.91549       	89.075485      	86.07405       	85.786125      	85.6355        	84.6561        	84.69952       	84.481674      	83.95957       	83.789345      	84.4391        	83.58181       	83.15374       	83.93488       	83.238716      	84.27379       	83.401535      	83.35082       	83.48353       	84.383446      	83.41096       	82.57565       	81.82546       	84.569916      	86.9955        	86.525345      	85.24379       	83.89295       	84.321434      	
72.880615      	73.32736       	73.688614      	71.99277       	72.09709       	72.574554      	74.417984      	81.306015      	84.52799       	85.449425      	83.49656       	84.76626       	84.14165       	84.280075      	84.396324      	84.49649       	84.58132       	83.20683       	83.18111       	83.46952       	84.035995      	84.409256      	84.46218       	83.49938       	83.60725       	84.36049       	83.609474      	84.5052        	83.92118       	84.42237       	84.44446       	81.84047       	76.477325      	75.837006      	72.95958       	72.30814       	72.96773       	74.016266      	73.29099       	74.46328       	74.28023       	73.72085       	74.50439       	74.46894       	74.54457       	73.93071       	74.62126       	75.20357       	73.5973        	74.71829       	74.38843       	73.8177        	73.77162       	74.39526       	74.65365       	73.932076      	73.85811       	74.913155      	74.76426       	74.90643       	73.863525      	75.65188       	76.721565      	76.06356       	76.01247       	77.60801       	75.170654      	77.70217       	77.31791       	78.25393       	78.15008       	81.15304       	88.81286       	85.37985       	84.973785      	85.00228       	84.26891       	84.351036      	85.188965      	84.73181       	84.38778       	83.85076       	84.4339        	84.52508       	84.57935       	85.025505      	85.351395      	84.91019       	84.50184       	84.57807       	84.948494      	84.86815       	84.83512       	84.374756      	84.682686      	83.24739       	83.90749       	84.06285       	84.003784      	82.67836       	
72.23014       	72.52512       	72.997345      	72.472466      	71.51601       	74.531784      	76.44845       	78.22561       	86.8463        	86.259926      	84.51257       	84.461006      	83.878586      	84.35977       	84.02949       	85.25055       	84.40396       	85.45155       	84.49439       	84.90502       	85.0962        	85.00263       	84.277435      	84.743         	84.03311       	84.95502       	84.099434      	83.95449       	84.837456      	86.04295       	84.04925       	82.94591       	76.852066      	74.89757       	73.40277       	73.09541       	72.95225       	73.09916       	73.28785       	73.62817       	74.34976       	74.667366      	75.53458       	75.10892       	73.6746        	73.99488       	74.51475       	73.892044      	73.99797       	74.37295       	74.27748       	74.011795      	74.00895       	74.44142       	74.69841       	75.26153       	76.21906       	75.314125      	76.05609       	76.17159       	74.95909       	76.72067       	77.90851       	79.81264       	80.56512       	80.18126       	80.26182       	80.25992       	80.53045       	81.25894       	82.49005       	85.92053       	89.003006      	86.12395       	84.9245        	85.157036      	85.216194      	85.306         	84.4855        	83.86637       	83.96147       	84.39352       	84.12313       	84.13068       	83.85195       	84.14283       	83.71485       	84.70862       	84.33474       	83.91492       	84.99849       	84.91133       	84.51955       	84.41761       	83.625595      	85.56053       	85.08678       	84.64041       	84.71713       	84.68396       	
72.62033       	72.8353        	73.93581       	73.46629       	71.69911       	71.889854      	75.721565      	77.14535       	84.115425      	87.12828       	83.81943       	83.666855      	85.04956       	85.596504      	85.81818       	83.681984      	84.81164       	84.98355       	84.78116       	84.57831       	84.03286       	84.41004       	84.50324       	84.4653        	84.27041       	84.954956      	84.37041       	83.668304      	84.663925      	84.34377       	85.021545      	84.34192       	78.50074       	75.80969       	74.31054       	73.51461       	73.67383       	74.14812       	74.013824      	74.230835      	74.856415      	74.30382       	74.88787       	75.50664       	74.88267       	74.236946      	74.24715       	74.03826       	74.066605      	75.01243       	73.66635       	76.56328       	75.17767       	76.30305       	75.523994      	76.46975       	76.36944       	77.96665       	77.38816       	77.28689       	77.70688       	77.897766      	80.51867       	79.984         	82.3793        	82.99171       	82.984825      	86.11872       	85.59299       	88.30129       	89.02455       	85.7142        	85.15288       	85.92841       	84.63883       	84.95917       	85.61398       	84.12768       	85.16056       	84.17846       	83.668335      	85.50785       	84.162575      	84.316055      	84.451035      	84.52884       	84.99431       	84.17477       	84.09337       	83.76364       	84.472404      	84.29542       	84.59814       	84.9491        	83.39617       	83.804985      	84.19426       	84.00863       	84.142006      	83.95695       	
72.782906      	73.20707       	73.000824      	72.38372       	71.56167       	71.62315       	73.46713       	76.24438       	80.97469       	85.73596       	84.41878       	84.28383       	84.53568       	85.42431       	84.23522       	84.39528       	84.718506      	85.21918       	85.307014      	84.29657       	84.845955      	84.08436       	84.01145       	84.63612       	84.84518       	84.92127       	85.8818        	83.54556       	84.92839       	84.91442       	85.27855       	85.67525       	79.763535      	75.72454       	74.0564        	73.344215      	73.04392       	73.3166        	73.87011       	74.12837       	73.97672       	74.07926       	74.17195       	73.73625       	74.11138       	73.93383       	74.70898       	74.85976       	74.70235       	73.95809       	77.59027       	77.804115      	77.03517       	77.70219       	78.37943       	76.33052       	79.603264      	79.10284       	81.3999        	81.72718       	81.95599       	82.036995      	83.00516       	85.45517       	89.18759       	85.924164      	84.661194      	85.21089       	84.45307       	84.3071        	84.58539       	84.17584       	84.40407       	84.74127       	84.27612       	84.37043       	85.92544       	84.47612       	84.17466       	83.95594       	84.55094       	85.11121       	84.442154      	84.419106      	84.7221        	84.92913       	83.12758       	84.084045      	84.82645       	84.82982       	84.10438       	84.54223       	84.995834      	84.10505       	83.814095      	84.682816      	84.31177       	85.13007       	84.08519       	84.56588       	
72.389824      	72.53429       	73.08859       	72.61354       	71.60033       	71.6673        	73.354614      	75.830536      	82.12214       	85.48024       	85.33074       	83.803444      	84.24212       	84.69462       	84.12756       	84.34502       	84.142494      	83.712685      	84.832726      	84.173134      	83.72574       	84.57018       	84.3876        	83.386086      	84.24077       	84.11951       	83.946365      	84.38496       	84.39409       	85.04639       	84.496346      	84.7322        	81.51433       	76.524574      	75.35524       	73.18244       	72.774185      	73.185356      	73.136375      	73.61733       	74.07551       	74.146164      	74.48424       	75.22086       	74.71243       	74.6392        	77.119965      	77.60558       	78.57907       	78.91018       	79.33137       	78.62407       	79.686615      	80.85522       	80.523735      	80.87068       	82.74591       	81.92271       	85.06382       	85.13172       	87.47811       	88.416336      	86.153885      	84.91678       	84.67717       	84.227615      	84.28891       	84.77384       	83.79049       	84.04208       	83.38071       	84.753685      	84.4443        	84.35617       	84.02618       	83.766014      	84.52345       	83.95674       	83.95023       	84.05337       	84.92638       	84.08293       	83.90491       	84.64728       	83.657776      	83.66971       	84.18498       	84.454124      	83.597244      	84.50651       	83.882416      	84.01258       	84.65967       	84.548874      	84.66804       	84.07663       	84.71311       	84.82047       	84.52539       	83.44861       	
72.71346       	72.61963       	72.64397       	72.076515      	71.893486      	71.25589       	72.5856        	74.43506       	81.84439       	86.07783       	85.887474      	84.49693       	83.40926       	84.013954      	83.78547       	83.931274      	84.4422        	84.38994       	84.314705      	83.04865       	83.228806      	84.2923        	84.46204       	84.00414       	84.66337       	84.02407       	84.76318       	84.53322       	85.11017       	84.710075      	85.08462       	84.75422       	84.957245      	78.45167       	75.432335      	75.044365      	73.90803       	73.574135      	73.33193       	73.85844       	75.71503       	74.28864       	76.17731       	76.07795       	77.0702        	76.10239       	78.93597       	78.50983       	78.924416      	80.09148       	81.40633       	81.58096       	82.490616      	83.93371       	84.526436      	83.38996       	88.87455       	88.82232       	87.01641       	85.51359       	84.868324      	85.14909       	84.08157       	84.25681       	83.52021       	84.46741       	83.56755       	83.92864       	83.3333        	83.51923       	83.922615      	84.12098       	83.92461       	83.02251       	83.32656       	83.77087       	84.11915       	83.42249       	83.66314       	82.68955       	84.23437       	84.01009       	83.30641       	85.3618        	83.36353       	83.497246      	83.0389        	83.71124       	83.89247       	84.65176       	83.48328       	83.75836       	85.88308       	82.986534      	83.67358       	82.9521        	82.82449       	83.972206      	83.8198        	83.274796      	
72.54936       	72.61685       	73.20253       	73.084694      	72.50496       	71.350975      	72.24521       	76.59299       	77.63906       	85.92949       	86.47482       	84.48779       	83.75008       	84.386246      	85.19483       	84.83653       	84.01479       	85.0718        	84.829895      	83.14367       	84.14069       	84.924225      	84.762596      	84.13729       	83.41031       	84.909645      	83.48959       	84.15145       	84.340965      	83.40892       	84.08473       	84.731544      	84.038414      	80.660545      	77.955574      	78.1509        	76.00507       	75.233154      	74.38873       	74.42727       	75.92438       	76.48582       	79.3765        	79.93188       	79.73663       	79.333176      	79.938385      	82.00343       	83.1628        	83.966286      	86.3704        	88.90707       	86.77952       	85.10997       	84.92145       	84.555145      	84.43395       	83.87951       	84.10156       	85.234055      	84.63597       	85.08353       	84.956085      	84.04495       	84.18169       	83.89272       	83.80306       	84.26169       	84.573586      	83.11717       	83.74973       	84.37255       	84.921036      	87.97932       	84.228836      	86.03447       	84.240036      	84.901855      	85.6684        	84.77437       	84.25049       	84.93988       	84.9567        	84.657394      	83.76857       	84.860886      	84.510185      	84.26843       	84.398315      	84.20867       	84.57036       	84.18837       	84.48655       	84.067566      	84.304375      	84.05741       	83.66724       	85.61076       	84.42362       	84.982185      	
72.99198       	73.33775       	73.012215      	72.68126       	72.222984      	72.37177       	71.628525      	74.105385      	75.75788       	83.301476      	87.910126      	85.07039       	83.934006      	83.873436      	84.12313       	83.50847       	84.276985      	84.45227       	85.358604      	83.186455      	83.821106      	83.95485       	84.375626      	84.77825       	84.26916       	84.65554       	84.68872       	84.10642       	84.23291       	84.6586        	84.94822       	84.45775       	85.3052        	85.6668        	83.745834      	79.977776      	77.829765      	78.26672       	75.54482       	77.18158       	79.321724      	81.42989       	81.40223       	83.29449       	82.1283        	84.04342       	85.68019       	87.292694      	88.2271        	85.35742       	85.71385       	85.60982       	85.383095      	85.44218       	85.38384       	84.861565      	84.15195       	85.75544       	84.76895       	83.81293       	84.43465       	83.94796       	83.755486      	84.36281       	84.256165      	83.84749       	83.95719       	84.24449       	83.79868       	84.32743       	83.26828       	84.03268       	85.38869       	84.374374      	80.11776       	82.79076       	84.348434      	85.19432       	84.46451       	84.532875      	84.40936       	84.92278       	84.44066       	84.94939       	84.81087       	84.572754      	84.774536      	84.442375      	84.86556       	85.50363       	83.97342       	85.15503       	84.40521       	83.988884      	84.93166       	83.89302       	84.07037       	84.58282       	83.73056       	83.901436      	
73.52227       	73.23066       	73.49239       	72.924965      	72.709236      	72.71998       	72.13465       	71.99687       	76.24594       	79.99769       	87.86987       	85.11714       	84.051216      	84.22613       	84.25175       	84.6031        	83.89518       	85.06836       	84.49412       	84.02868       	83.84991       	84.68599       	83.03657       	84.470055      	83.98968       	85.50179       	84.10667       	84.63386       	84.39039       	84.756485      	84.61579       	84.504166      	84.91216       	85.5174        	85.17471       	83.80961       	80.71069       	81.565575      	79.89257       	82.996414      	84.014656      	85.59648       	86.21011       	86.1988        	88.440155      	87.11246       	86.08475       	85.13525       	85.4075        	84.63837       	84.16217       	84.62476       	84.87356       	83.88615       	84.29477       	85.1713        	85.04544       	84.51536       	84.59515       	83.555595      	83.63168       	84.90836       	84.45029       	83.90087       	83.73068       	84.55386       	84.573746      	83.51402       	83.579605      	84.78134       	85.37004       	82.95116       	84.57259       	84.71311       	84.79931       	83.8191        	84.801285      	85.581764      	84.31287       	85.13903       	84.15972       	84.18002       	85.819176      	84.381195      	84.78835       	83.69863       	84.531494      	84.75231       	83.296036      	84.36636       	85.09098       	85.269005      	83.69905       	84.05437       	84.94264       	83.58393       	84.76977       	85.22991       	84.46985       	84.68176       	
73.260216      	72.995094      	73.086174      	73.03246       	72.44297       	73.76875       	72.93172       	72.18604       	74.70371       	77.96346       	82.75448       	86.618965      	84.20967       	84.14934       	84.434685      	84.93597       	83.62432       	83.601395      	84.891716      	84.02668       	83.832146      	83.70918       	84.672325      	84.12987       	83.984474      	85.01278       	84.116585      	84.115944      	84.052025      	84.96049       	84.982956      	83.84259       	84.86611       	85.40267       	84.768845      	85.55452       	85.94918       	86.2277        	84.39666       	86.24416       	85.47057       	84.90413       	82.69501       	84.940155      	84.32529       	84.18782       	84.131935      	83.70296       	84.07744       	83.1512        	83.54834       	83.574974      	83.660194      	83.281296      	83.510345      	82.90404       	83.49343       	83.30599       	82.98178       	83.14546       	82.83397       	83.19836       	83.6923        	83.09997       	83.451355      	83.5782        	83.425095      	83.748405      	83.698715      	82.374146      	84.176865      	83.397316      	83.10795       	83.55345       	83.29846       	83.56121       	83.55771       	83.88948       	84.60264       	83.67274       	83.019104      	84.49491       	83.115135      	83.279915      	84.51753       	82.430046      	85.66725       	82.86712       	82.685425      	83.62223       	82.84509       	83.44709       	83.7399        	83.74878       	84.537384      	82.953186      	83.54628       	85.3879        	83.58463       	84.04473       	
73.24738       	73.44384       	73.90672       	73.70134       	73.2456        	73.265114      	72.48715       	72.198204      	74.34956       	77.38384       	83.038216      	86.872086      	84.35675       	84.53911       	84.61425       	84.44208       	84.721504      	84.444786      	84.77141       	84.834946      	84.823685      	84.97592       	84.98068       	84.24844       	84.9247        	84.34977       	84.51819       	85.037186      	84.014175      	84.30062       	84.21188       	84.927155      	85.65181       	84.88223       	85.336845      	85.75539       	85.2257        	84.84215       	84.72721       	85.08072       	84.551956      	85.03712       	84.750046      	84.927635      	84.22663       	85.00215       	85.072365      	84.77146       	84.63674       	84.46675       	83.68445       	84.291664      	84.422905      	84.13803       	84.44979       	84.35219       	83.75589       	84.46726       	84.26885       	84.30186       	83.84797       	83.67263       	83.86124       	84.222595      	83.80725       	83.86478       	84.05403       	83.52238       	83.734055      	83.627625      	83.74439       	83.47572       	83.769196      	84.36125       	84.25123       	84.94194       	84.470795      	84.61866       	83.82162       	84.53374       	84.44904       	84.537575      	84.02041       	84.2997        	85.1569        	84.30179       	85.056725      	83.866         	84.45177       	84.76967       	84.01057       	84.20278       	84.570694      	84.91031       	83.89504       	84.15945       	84.39278       	84.55153       	84.035515      	83.968285      	
73.6914        	73.63506       	73.64796       	73.63709       	73.181335      	73.4113        	72.1294        	71.768234      	73.52651       	76.40971       	81.52832       	85.24831       	85.64571       	84.87322       	85.40926       	83.76183       	84.18594       	84.73772       	84.849365      	85.983734      	83.38103       	84.69871       	84.92384       	84.97821       	84.05762       	84.59507       	84.84119       	83.905876      	84.473595      	85.2512        	84.00301       	85.07764       	84.50792       	84.56996       	85.21939       	85.20287       	85.485214      	85.04716       	84.201645      	85.33502       	83.90168       	84.96805       	85.03802       	84.67953       	84.43721       	84.52745       	84.527885      	84.64196       	84.09284       	84.17987       	84.017815      	84.23769       	84.54956       	84.418564      	83.88917       	83.77652       	83.89356       	84.502205      	84.00514       	84.13301       	84.0236        	84.0114        	83.50534       	84.917114      	83.846504      	83.415504      	84.45085       	83.38796       	84.15413       	83.78498       	83.77286       	83.64514       	83.14503       	84.48426       	84.20738       	83.57313       	85.05562       	83.92761       	83.79894       	84.366776      	84.87633       	84.15104       	83.68246       	84.00678       	84.46515       	84.23187       	84.37616       	83.60884       	83.89649       	84.44316       	83.667496      	83.79187       	84.14273       	84.641655      	84.03143       	84.28947       	84.25229       	84.36514       	84.48669       	84.54604       	
72.988075      	73.02896       	73.08824       	73.00073       	72.903786      	72.7438        	73.55042       	71.61846       	71.888115      	74.24716       	81.63149       	83.586395      	87.19589       	85.10529       	84.69781       	84.2464        	84.61663       	84.52789       	84.020805      	84.462685      	85.012375      	84.53634       	84.14761       	84.35586       	83.59804       	84.52266       	84.353935      	84.65302       	84.31784       	84.08503       	84.7971        	84.648544      	84.27475       	84.286156      	84.64256       	86.20287       	83.88031       	84.86494       	84.68072       	84.62625       	84.6466        	84.82967       	83.8207        	84.7696        	83.970055      	83.88665       	83.5144        	84.4191        	83.546295      	84.261         	83.74736       	83.80639       	83.793465      	83.84964       	83.6292        	83.79365       	84.19324       	84.09286       	84.093216      	83.270134      	83.92952       	83.79333       	83.69407       	83.536476      	83.60153       	84.02753       	84.19001       	83.001205      	84.75079       	83.986626      	83.99727       	83.20995       	83.050575      	84.83933       	85.68039       	83.49103       	84.524734      	84.40839       	84.96057       	84.13396       	84.28339       	83.89991       	85.37849       	84.17362       	83.95448       	85.60622       	83.31313       	84.41724       	84.64763       	84.28529       	84.07478       	84.64432       	84.27761       	84.2991        	85.177826      	85.55442       	83.878586      	84.91476       	84.529816      	84.18481       	
72.62837       	72.62041       	73.616844      	75.30079       	73.99468       	74.041214      	75.807365      	73.68663       	73.547585      	73.797745      	77.81627       	82.08452       	87.980705      	84.87605       	84.517075      	84.778885      	84.71763       	84.18841       	84.60946       	84.55307       	84.222176      	84.33791       	83.951706      	83.92385       	84.17184       	83.54506       	84.42318       	84.09908       	83.845535      	83.33181       	83.89069       	83.351814      	83.4203        	83.41954       	83.917534      	83.4243        	84.1446        	83.5223        	83.214676      	83.2123        	83.44439       	85.06523       	85.3435        	83.68188       	83.619576      	84.69915       	83.8611        	83.481346      	84.360886      	83.72126       	83.82527       	83.38738       	83.71964       	84.03724       	84.23068       	84.19192       	83.7824        	83.78056       	83.49801       	83.83951       	83.843155      	83.49964       	84.514435      	83.976074      	83.64618       	83.863914      	84.14732       	84.771255      	83.56953       	83.7224        	85.161354      	83.336914      	84.30577       	84.38595       	84.435326      	84.22102       	84.02998       	83.24743       	83.90987       	83.46921       	83.352455      	84.9435        	83.67014       	84.490005      	84.1052        	84.777824      	83.682655      	85.07614       	84.69495       	85.2692        	84.25691       	85.052444      	84.072136      	84.14483       	84.381996      	84.0875        	84.38879       	84.90185       	83.79797       	84.65611       	
74.34002       	75.027725      	75.7199        	76.38436       	76.66444       	77.910225      	77.49691       	77.29185       	76.98548       	76.61975       	78.26098       	83.71644       	87.84787       	86.0338        	85.195885      	84.92967       	85.253784      	84.91111       	84.41727       	84.41146       	84.3986        	84.172         	83.97022       	84.16063       	83.65598       	83.52242       	83.74896       	84.278564      	85.2408        	84.39106       	83.918274      	84.37022       	84.43521       	84.14192       	83.92661       	84.6778        	83.95486       	83.92242       	83.22844       	83.46094       	84.97593       	84.70525       	83.87884       	85.16637       	84.00292       	84.376         	84.61963       	84.102196      	84.25219       	83.80611       	83.89819       	83.74851       	84.16573       	83.291855      	83.97231       	83.633575      	83.72504       	84.08437       	83.29314       	83.52737       	84.24641       	83.370804      	84.57583       	83.357056      	83.6558        	83.532074      	83.27737       	84.49288       	83.54978       	82.787834      	84.308495      	83.578064      	84.1844        	83.830894      	83.90163       	84.39413       	83.59895       	84.33474       	84.296135      	83.99058       	84.156006      	83.7957        	83.26575       	84.2923        	83.509415      	83.886345      	83.793625      	83.66702       	83.9218        	84.19034       	84.07706       	83.67457       	84.582634      	83.97922       	84.11269       	83.18239       	84.1135        	84.06361       	83.246765      	83.807976      	
76.438545      	76.57019       	77.62854       	78.759094      	78.654564      	78.89906       	80.20477       	79.84975       	78.49838       	80.396095      	82.454056      	88.52754       	85.95137       	84.93533       	84.72131       	84.92354       	85.56323       	85.18327       	85.935074      	85.25435       	84.265594      	85.54069       	84.78175       	85.46952       	84.693825      	84.22991       	84.6338        	84.584854      	85.10942       	84.61337       	84.76048       	84.65348       	84.23541       	84.65118       	84.725655      	85.251236      	84.14917       	84.66049       	84.477806      	84.993385      	83.89334       	84.616905      	84.338646      	83.99687       	85.2229        	83.59594       	83.81109       	84.02306       	84.3179        	84.54626       	83.56972       	83.73087       	83.26242       	84.23325       	83.5898        	83.62057       	83.87279       	83.58721       	84.62058       	84.60709       	83.78421       	83.79254       	83.80688       	84.15887       	84.8668        	84.15205       	83.68782       	84.47996       	84.198296      	86.5884        	82.61114       	84.06482       	84.69534       	84.14396       	83.8247        	83.95992       	84.86679       	83.55393       	84.67721       	84.34204       	84.127815      	84.81817       	84.964516      	82.96382       	84.54145       	84.91141       	83.85618       	84.38927       	84.166115      	84.45514       	84.419975      	84.319496      	84.339424      	84.29409       	84.48134       	84.04868       	84.53882       	84.714294      	83.85099       	84.30685       	
78.424034      	78.81132       	79.95607       	80.56725       	80.87859       	81.58386       	82.322945      	83.90518       	86.575836      	88.86679       	88.704765      	85.83612       	85.49365       	84.40384       	84.252655      	84.813515      	84.59336       	85.28822       	84.39787       	84.57254       	84.18365       	84.926125      	83.75942       	84.203026      	84.64277       	84.42681       	83.83564       	83.88267       	84.33389       	83.33851       	84.70736       	83.96441       	83.95411       	85.31366       	83.83828       	84.256         	84.33423       	83.53087       	84.00693       	84.27041       	83.20125       	83.626465      	83.85015       	82.956215      	85.51078       	82.920074      	83.85734       	84.104355      	83.13812       	83.74702       	83.820404      	83.940605      	84.35274       	83.56713       	83.951126      	84.42267       	84.07794       	83.76986       	83.70291       	84.27455       	83.80015       	83.94779       	83.39997       	83.84618       	83.27968       	83.88623       	84.11265       	84.02051       	83.52023       	83.40508       	83.7636        	83.88182       	83.13332       	83.64668       	83.223335      	83.172295      	83.85128       	83.6708        	83.428604      	84.29561       	83.05782       	84.11337       	83.29387       	83.73349       	83.62712       	84.18928       	84.06092       	83.61586       	83.69335       	83.21712       	83.48039       	82.81186       	84.139755      	85.35823       	83.220634      	83.45729       	83.52434       	84.64057       	83.07528       	85.12365       	
82.58056       	83.142586      	83.2812        	84.111046      	86.67281       	88.66993       	86.207664      	86.90613       	85.747314      	85.44572       	85.31722       	86.21135       	84.96694       	86.030525      	85.28495       	83.92561       	84.75596       	84.81598       	85.325836      	84.93922       	84.30525       	84.88393       	84.11352       	84.07647       	84.43019       	84.05926       	84.73488       	85.870804      	83.354004      	84.134415      	85.087135      	85.00491       	84.93149       	84.219376      	84.05868       	85.06369       	84.813515      	84.65638       	84.479355      	84.95696       	84.73592       	84.5289        	84.69447       	84.76442       	84.09186       	84.51673       	84.22012       	84.58345       	82.8114        	85.0573        	83.40945       	84.65676       	84.01711       	84.45203       	84.64284       	83.43432       	84.17054       	84.02188       	84.32794       	83.58833       	84.71485       	83.14921       	84.76951       	84.923805      	83.498474      	84.171394      	84.94805       	83.908066      	84.5413        	83.80755       	84.31455       	85.400215      	84.43665       	84.57522       	83.9431        	84.72171       	84.81408       	85.1564        	84.81966       	84.26234       	85.70305       	84.44496       	84.55069       	85.203156      	84.01282       	84.140594      	83.66884       	84.57848       	84.978645      	84.24449       	84.872375      	84.16704       	83.901146      	84.31786       	84.58597       	84.341965      	85.878136      	84.10708       	84.832985      	84.50639       	
86.37656       	88.37761       	88.41938       	86.76754       	86.606705      	85.91825       	85.84745       	85.74324       	85.50395       	85.468506      	85.621445      	85.44344       	85.2001        	84.914986      	84.13656       	84.998856      	84.232895      	84.427704      	85.32157       	85.683334      	85.47989       	85.164925      	84.09602       	84.40304       	84.76323       	84.65684       	85.73572       	84.656456      	84.273346      	85.018616      	85.61725       	84.31825       	84.88833       	84.58887       	85.95981       	84.949425      	84.85157       	84.889534      	85.19539       	84.835724      	85.17309       	85.01304       	84.66645       	84.782036      	84.704025      	84.84678       	84.417175      	84.33186       	84.02379       	85.554214      	85.15          	84.993355      	86.2524        	83.170715      	85.21252       	84.86266       	84.23404       	84.57587       	83.68655       	84.66341       	84.457855      	85.13823       	85.11983       	84.102844      	84.453354      	83.889084      	85.40432       	84.381615      	83.66019       	85.057945      	84.46744       	83.73474       	84.836914      	83.8598        	84.654564      	84.34936       	84.61063       	83.55212       	84.29919       	84.69373       	85.206314      	84.34676       	85.04298       	84.52636       	84.49764       	84.37079       	84.53654       	85.33186       	85.334114      	85.01298       	85.35736       	84.23948       	84.76638       	84.95638       	84.66035       	84.99899       	84.79447       	85.17938       	84.25359       	84.46232       	
84.62255       	84.73458       	84.997925      	84.2892        	85.102905      	86.790855      	84.60298       	87.252884      	83.0783        	85.666534      	85.46116       	85.319176      	85.30304       	85.07775       	85.01091       	85.34646       	84.67804       	85.627426      	85.48134       	85.41103       	84.641785      	85.266174      	85.201065      	84.44186       	85.526054      	85.03317       	84.62666       	85.13236       	85.2166        	84.90095       	84.75628       	85.74315       	84.866394      	84.27614       	84.972694      	84.73019       	86.31359       	84.02284       	84.05816       	85.06851       	84.279106      	83.99342       	83.9153        	84.37429       	84.12357       	84.66299       	85.15731       	84.28536       	84.30654       	84.51781       	84.74431       	84.77804       	84.89916       	83.90219       	84.28037       	84.68655       	83.8733        	84.7315        	85.35256       	84.62626       	85.28516       	84.13554       	84.282036      	85.0536        	84.28614       	84.45703       	85.06019       	83.92811       	84.4294        	84.52088       	84.22306       	84.51845       	84.328674      	84.17929       	85.35881       	83.64526       	84.51215       	85.141106      	84.15151       	84.61821       	83.68455       	83.96944       	85.0161        	84.585075      	84.75039       	84.599495      	84.27248       	84.624756      	85.03703       	84.52415       	84.29535       	85.25804       	84.90674       	84.990845      	84.66855       	84.82329       	84.239174      	84.64536       	84.753494      	85.05601       	
83.7064        	83.64569       	84.273964      	86.22412       	86.86642       	85.674324      	86.06383       	84.42054       	84.90076       	85.41418       	84.5213        	85.35741       	85.23359       	84.57491       	85.1614        	84.63211       	84.916214      	85.977974      	84.86993       	85.20185       	84.73795       	85.11805       	84.727066      	84.28105       	85.60132       	84.05391       	84.50505       	85.09523       	84.97285       	83.9295        	83.92877       	85.662056      	85.51891       	86.047066      	84.933365      	85.508385      	85.62404       	85.53839       	85.69652       	85.12892       	84.677444      	84.55663       	85.15654       	84.77378       	84.090706      	84.955475      	84.568504      	83.03148       	86.589066      	85.62476       	84.741554      	85.629524      	84.37851       	84.84699       	84.7163        	84.84578       	83.96176       	83.95876       	84.68538       	84.574326      	84.74827       	85.18037       	84.44437       	84.4211        	84.6814        	84.36937       	84.54859       	85.337975      	85.623566      	84.004524      	84.33818       	84.9831        	83.33167       	84.32736       	84.67629       	84.89473       	85.58602       	84.068275      	84.83358       	84.2303        	84.44402       	84.917206      	85.21299       	84.47632       	84.27813       	84.45012       	85.54701       	84.70656       	84.36178       	84.26014       	84.907524      	83.62407       	84.27441       	85.08299       	84.1285        	83.857925      	84.48872       	84.28528       	84.96686       	84.40162       	
83.38641       	83.586235      	83.697044      	85.902405      	86.331825      	87.48638       	85.0028        	84.71061       	84.74776       	84.89636       	84.58922       	84.44781       	84.57852       	84.98837       	85.40998       	85.39732       	84.743416      	84.28881       	84.99826       	84.721954      	85.337006      	84.748215      	84.35646       	84.562775      	84.73053       	86.16213       	84.10668       	84.252525      	84.88138       	85.14093       	84.62845       	84.58088       	84.876114      	84.92056       	85.30454       	84.62646       	84.9597        	84.68803       	84.68727       	84.82504       	84.83396       	83.44854       	84.37321       	84.03534       	83.4016        	85.175995      	84.12453       	82.8978        	83.89744       	88.52775       	84.86669       	84.37397       	84.91695       	85.823006      	84.70373       	84.25141       	83.75523       	83.575676      	84.439735      	83.37789       	83.94422       	84.44779       	84.051125      	84.34968       	84.795586      	85.21926       	84.65495       	84.95959       	85.364944      	84.50574       	84.48761       	84.189026      	84.1805        	84.31841       	85.9336        	83.81349       	85.13137       	85.69954       	84.8934        	84.60124       	84.92996       	84.56008       	85.0272        	85.61721       	84.20501       	83.81609       	84.94514       	84.46464       	85.25913       	83.86578       	84.42209       	84.801796      	83.85344       	84.61591       	84.26026       	84.701096      	83.99098       	84.60286       	83.6934        	84.13914       	
83.44441       	83.92567       	84.46809       	86.385506      	85.893715      	85.79646       	84.74878       	85.41174       	85.553085      	85.59579       	84.08357       	84.54711       	85.4488        	84.753006      	85.105286      	85.54822       	85.94955       	84.05201       	84.536476      	85.80705       	84.030945      	84.39606       	85.13207       	85.09691       	84.90911       	84.43602       	85.202095      	85.34024       	85.07352       	84.28283       	84.91337       	84.143425      	84.65328       	84.31003       	83.97569       	84.05342       	84.41745       	84.86076       	84.790726      	84.00868       	84.362274      	84.61647       	83.6998        	84.06879       	84.96186       	84.41911       	84.79186       	82.890816      	83.95397       	86.35968       	83.01868       	83.56657       	84.7413        	84.10396       	84.05489       	85.23099       	84.71864       	84.216576      	84.10916       	84.54101       	84.827255      	85.02326       	84.12683       	84.53446       	85.0065        	84.513596      	84.95653       	83.40526       	84.590416      	84.374504      	84.23774       	84.41756       	83.895004      	83.631226      	84.41071       	83.3099        	84.53316       	85.103806      	84.27786       	84.50312       	84.27306       	84.74874       	84.13902       	85.23853       	84.55669       	85.04254       	84.754456      	84.33532       	85.36394       	83.99401       	83.80082       	85.00672       	84.816345      	84.40107       	84.90531       	84.740974      	85.70419       	84.59884       	85.21772       	84.896515      	
82.58758       	83.22942       	83.48293       	83.6834        	84.07809       	83.984604      	84.22406       	84.97526       	85.243355      	84.54751       	84.9855        	85.077675      	84.868         	85.286385      	85.11284       	85.56736       	84.7354        	85.0868        	84.56869       	85.15677       	84.692955      	84.585335      	85.28254       	84.45318       	84.84462       	86.26192       	83.669075      	85.154274      	84.78434       	85.265915      	85.30573       	84.466866      	85.17998       	84.834145      	85.703316      	84.482605      	84.568306      	85.50708       	85.397995      	84.83804       	84.504456      	84.50456       	84.03356       	84.24987       	84.957794      	84.827156      	85.69826       	84.41147       	83.90774       	83.98456       	84.36191       	84.041435      	84.30649       	84.658516      	83.75747       	84.32676       	84.98019       	84.176834      	84.54179       	84.10592       	84.40999       	84.77047       	83.69344       	87.035614      	82.83201       	84.60316       	84.17433       	84.456505      	84.66785       	84.86714       	84.2412        	84.68039       	84.72867       	84.44091       	84.39324       	84.179344      	84.11634       	85.63189       	84.30436       	84.60488       	84.75945       	84.80564       	84.93355       	84.99461       	84.46779       	84.973656      	85.081764      	85.49003       	85.25812       	84.40854       	84.41912       	84.51985       	83.98112       	84.12505       	84.56292       	84.252686      	84.754814      	84.78386       	85.00561       	85.50226       	
83.86504       	83.75006       	83.46059       	85.11141       	86.48763       	85.69127       	85.41045       	85.01987       	84.514534      	84.91319       	84.466774      	84.43687       	85.286865      	84.36347       	84.71979       	86.224434      	84.59784       	84.827705      	85.59386       	84.772385      	84.9809        	84.74811       	85.430595      	85.06696       	85.00943       	85.3504        	84.37819       	84.45407       	84.42907       	84.081535      	84.82203       	85.10359       	85.40239       	84.50539       	84.87474       	84.69438       	84.41419       	84.37092       	84.602905      	85.66261       	84.837814      	84.811905      	83.89574       	84.62306       	84.602104      	84.304405      	84.39182       	84.45438       	84.81632       	84.75902       	84.54944       	84.72589       	84.527275      	84.147835      	84.709274      	85.45752       	84.37224       	84.837906      	84.59176       	84.39818       	84.21269       	84.18773       	84.30664       	84.2133        	84.68257       	84.318726      	84.633064      	84.142586      	84.095665      	84.02116       	83.58444       	84.70421       	84.21507       	83.87755       	84.53471       	84.25172       	85.93945       	84.63655       	84.261955      	84.42959       	84.167145      	85.03302       	85.27691       	83.88652       	84.37603       	84.844696      	83.88261       	84.80687       	84.68872       	83.82523       	84.44494       	84.212524      	84.031624      	84.10425       	83.48892       	84.57978       	84.68272       	83.410736      	84.00452       	83.56949       	
83.37583       	83.524635      	83.8967        	85.2393        	85.530945      	85.50418       	85.17939       	85.117096      	84.420235      	84.75277       	85.03057       	84.64915       	85.62998       	85.39854       	85.64343       	85.380104      	85.272446      	85.79793       	85.15663       	85.6396        	84.99322       	84.78177       	85.493744      	84.74534       	85.24192       	84.293434      	84.60374       	84.85769       	84.77934       	84.648346      	84.83733       	85.60744       	85.581795      	85.3596        	85.11092       	85.02259       	85.059135      	85.80373       	85.546715      	85.18394       	85.1547        	85.78804       	84.89484       	84.34344       	85.450584      	84.9974        	84.79787       	85.17645       	84.88255       	84.73625       	84.80683       	84.3818        	84.67667       	84.87681       	84.22295       	84.73824       	84.95736       	85.3196        	84.20281       	84.28453       	84.99444       	84.34915       	84.80343       	84.09721       	84.06889       	85.11164       	84.121544      	85.388016      	84.812454      	85.06904       	84.432915      	84.77946       	85.1402        	84.433716      	84.922226      	83.855515      	86.03047       	85.03994       	83.94562       	84.624535      	84.7897        	85.58516       	84.700905      	84.60172       	84.2865        	85.12928       	84.63631       	85.98662       	85.06825       	84.650734      	85.409996      	85.00263       	86.48122       	84.43491       	84.463936      	86.12001       	84.07994       	84.61307       	85.83257       	85.12346       	
84.31703       	84.48193       	84.69857       	84.168015      	83.98454       	84.87815       	85.51711       	85.82456       	85.78686       	84.877335      	85.275635      	85.4132        	85.17597       	85.96815       	85.37898       	85.34242       	85.89512       	85.532486      	84.58766       	85.447655      	85.57401       	85.73857       	85.1605        	85.68298       	85.85312       	85.589165      	85.46845       	85.66623       	87.17928       	84.43998       	85.41153       	85.123535      	86.32913       	86.17258       	85.28103       	86.21418       	85.04426       	85.95043       	85.52175       	85.62173       	85.25541       	84.811844      	85.45516       	84.61969       	85.617195      	84.78566       	85.435646      	85.775566      	85.05261       	85.41433       	84.23417       	85.06422       	86.2076        	84.03822       	84.49099       	84.58985       	84.97489       	84.31145       	84.87815       	85.12145       	84.377045      	86.0933        	84.02678       	84.86054       	84.56788       	85.77329       	84.421394      	85.65262       	84.775925      	85.42953       	85.61154       	84.9694        	85.50038       	85.007164      	83.34785       	84.0767        	84.86536       	90.2434        	86.99607       	87.166565      	85.73173       	84.583206      	84.41314       	84.751755      	84.86924       	85.97085       	84.955025      	85.25386       	85.15811       	85.3973        	84.99379       	86.24659       	85.03358       	85.35787       	85.10225       	86.04602       	84.7034        	85.20345       	84.74438       	85.04255       	
83.682274      	83.71016       	83.87217       	83.9084        	84.54921       	83.48243       	84.10833       	83.9142        	83.748665      	83.87492       	83.74338       	84.00685       	83.93383       	84.26293       	83.41292       	85.15255       	83.86723       	84.97578       	84.36319       	85.7758        	84.24734       	84.745316      	85.24511       	85.795105      	85.10246       	85.5902        	84.825516      	84.92009       	84.35121       	85.01049       	85.60901       	84.72247       	83.86872       	84.416916      	84.688896      	83.973915      	84.69563       	86.25469       	85.37331       	85.541245      	83.856606      	84.058044      	83.710106      	84.31265       	83.43883       	84.04546       	85.29629       	85.71652       	84.85584       	85.22082       	84.433205      	85.060425      	84.32696       	84.32986       	85.183014      	84.181625      	85.348206      	85.012375      	85.368004      	85.65814       	83.99114       	84.61433       	85.17012       	84.144615      	85.44766       	85.57444       	85.18719       	81.68155       	82.9402        	81.06081       	78.59325       	76.96906       	74.226776      	73.50205       	73.223236      	74.24555       	75.183784      	78.265884      	88.073395      	84.974236      	85.951546      	85.84453       	85.902824      	85.35415       	85.683975      	85.11965       	85.31588       	86.81945       	84.72527       	86.36325       	84.051056      	85.031975      	85.52885       	84.21128       	85.81624       	85.39132       	86.29798       	85.490654      	85.73796       	85.7781        	
83.47565       	83.822784      	83.83558       	83.98868       	83.69212       	84.09697       	83.9162        	83.732544      	84.59345       	84.68605       	85.1019        	85.37394       	84.15859       	85.86208       	85.27703       	85.67188       	85.549736      	85.46889       	85.002144      	85.14677       	85.293144      	84.86374       	85.00995       	84.72556       	84.584274      	84.64938       	84.86737       	84.61955       	85.25469       	84.34779       	85.20108       	85.06681       	84.60421       	85.507065      	84.96188       	84.4541        	84.179344      	84.678055      	85.43154       	85.37017       	84.99819       	85.22399       	84.74657       	83.84305       	84.687325      	84.53531       	84.727066      	85.93496       	84.42728       	85.178215      	83.85553       	84.97341       	84.58041       	84.68233       	85.48602       	83.58612       	84.15181       	84.34881       	84.0607        	84.703186      	84.14639       	84.617455      	84.08673       	84.739815      	84.94807       	80.02451       	76.308235      	74.85391       	74.289825      	73.029854      	72.07083       	72.1945        	72.158424      	70.73639       	70.75368       	71.12282       	71.12462       	74.144394      	83.76892       	85.377914      	85.23983       	84.80401       	84.72114       	84.24688       	84.77593       	84.79412       	84.67226       	84.43504       	85.22025       	84.63811       	84.55107       	85.73766       	85.032364      	84.008446      	84.22516       	84.80354       	84.983215      	84.10602       	84.604904      	85.59946       	
82.696304      	82.52981       	82.780205      	83.79817       	84.47621       	83.65493       	83.04164       	83.983665      	84.12668       	83.29479       	83.55563       	83.37373       	83.30576       	83.763336      	84.453766      	84.30859       	84.252914      	84.10261       	83.47861       	83.986374      	83.62433       	84.03648       	84.39818       	83.622116      	83.38811       	84.59881       	83.95702       	82.91232       	83.64329       	83.45145       	83.228516      	83.568535      	84.30168       	84.36965       	84.45219       	84.63014       	83.81514       	84.84809       	84.702354      	85.69875       	84.20476       	84.633995      	84.133446      	83.663795      	83.00695       	85.0195        	84.76895       	84.93432       	83.61563       	84.41293       	83.90559       	83.63471       	84.30806       	84.37729       	83.827286      	84.28258       	86.418205      	84.038506      	84.32687       	84.430405      	81.98993       	82.06978       	78.754906      	75.5322        	73.97305       	73.354225      	72.05332       	72.29717       	71.941475      	71.41834       	71.27063       	71.86893       	71.76712       	71.557014      	72.12848       	71.94575       	70.87417       	75.57244       	78.825806      	88.85158       	83.6402        	83.75978       	84.6967        	85.2117        	84.422806      	84.942856      	85.19546       	84.55095       	84.784935      	84.97729       	84.609695      	85.24474       	85.06821       	83.656334      	84.34045       	84.46671       	84.64888       	85.34454       	85.643326      	84.59948       	
83.040405      	83.13952       	84.02168       	84.37995       	83.9307        	83.3707        	83.75371       	84.2799        	84.87068       	84.63595       	83.99066       	84.17164       	84.75038       	83.9717        	85.3308        	84.72784       	85.036804      	85.80972       	84.71594       	85.20467       	85.20923       	84.73587       	85.37723       	84.69285       	85.10828       	85.05252       	86.081184      	83.70573       	84.370544      	84.537445      	83.986916      	84.37761       	84.75626       	85.20007       	85.43098       	84.129105      	84.955215      	85.0491        	84.560394      	86.22385       	84.506836      	84.64527       	85.19171       	85.1915        	86.34282       	84.74253       	84.60003       	85.31586       	84.256775      	84.60221       	85.12344       	85.04066       	84.30478       	84.9394        	84.87597       	83.047424      	78.820526      	76.228226      	76.626785      	74.215         	74.07733       	73.66743       	72.48734       	71.99829       	72.67957       	73.0866        	71.85755       	72.006454      	72.532394      	72.43871       	73.277214      	72.58439       	72.87004       	72.255905      	71.92157       	71.709816      	71.35851       	73.508965      	78.551575      	84.84909       	87.94431       	84.973755      	83.90027       	84.30079       	84.83475       	85.20366       	85.09482       	84.77593       	84.90181       	85.340034      	84.71179       	85.11457       	85.02867       	85.49342       	84.4251        	84.89432       	84.77876       	84.881905      	85.95216       	84.66037       	
82.99129       	83.66903       	84.380424      	84.07876       	83.82423       	84.697235      	83.90827       	84.74354       	84.863945      	85.22294       	84.97178       	84.98712       	84.846825      	84.30171       	84.64613       	85.242         	84.9101        	85.07415       	85.34452       	84.876205      	85.088524      	85.064156      	84.6127        	85.08791       	85.517525      	85.07372       	84.856445      	84.50838       	84.9546        	84.81794       	84.801994      	84.794525      	85.06486       	85.46967       	84.80893       	84.64809       	84.97528       	83.89043       	85.135956      	85.63952       	84.45125       	85.57868       	84.16805       	84.874596      	84.041435      	84.975685      	84.75195       	84.9382        	85.10719       	84.51963       	84.57207       	83.77526       	80.080444      	76.75631       	76.268005      	75.10611       	73.28042       	72.46144       	72.62542       	72.21389       	71.94679       	72.03656       	71.90661       	72.660675      	73.3969        	72.604576      	72.463875      	72.58864       	73.209816      	73.7545        	73.79496       	73.60158       	73.14214       	73.020065      	72.77488       	72.28281       	71.86431       	73.13616       	78.526306      	81.9141        	87.18444       	83.29956       	84.92802       	83.91288       	85.165474      	84.59113       	84.9607        	84.701195      	84.64356       	84.1194        	84.50663       	85.525536      	84.3947        	84.8637        	86.3353        	83.528656      	85.014275      	83.92208       	84.61296       	85.21976       	
84.01561       	83.91722       	84.00608       	84.22866       	84.50186       	83.7136        	83.607544      	84.256485      	83.77792       	84.43534       	84.36433       	83.73361       	83.78205       	83.715965      	83.68147       	83.93423       	84.0511        	85.087364      	83.73933       	83.6291        	83.61207       	84.09626       	85.65597       	86.43718       	85.597         	85.73138       	85.53205       	85.28226       	85.3074        	85.92543       	84.6731        	85.19809       	84.95018       	84.96242       	85.23355       	85.12826       	85.23578       	85.55337       	85.437584      	85.392914      	84.967964      	85.00257       	85.207115      	85.434814      	84.163155      	84.80152       	83.74759       	81.27106       	80.95686       	79.15608       	75.526         	74.315575      	73.55398       	72.42952       	72.90674       	73.07825       	72.380135      	72.61112       	72.57774       	72.789986      	72.642         	72.947556      	73.08549       	72.82742       	72.64403       	73.26954       	73.408005      	73.70409       	73.34476       	73.64654       	74.0925        	74.151764      	74.19515       	73.6932        	72.62499       	71.44089       	73.1935        	73.37994       	75.99292       	81.753105      	86.574165      	85.10942       	84.19496       	84.12465       	84.85622       	84.040184      	83.9542        	84.687225      	83.54714       	84.02821       	84.364334      	83.90333       	83.81107       	85.22015       	84.3526        	85.08117       	84.45911       	84.84333       	84.9524        	84.693596      	
83.53437       	84.08919       	84.94852       	84.78125       	84.298256      	85.16342       	84.528244      	83.83395       	84.97142       	84.47665       	83.81403       	84.44768       	84.26372       	84.20308       	85.854095      	86.1039        	85.42417       	85.2356        	85.5594        	85.53618       	85.55197       	84.91625       	84.249214      	85.20631       	84.671455      	84.35719       	84.57765       	84.88409       	85.54211       	84.1744        	85.44078       	85.94093       	84.36428       	84.67238       	85.00732       	86.176506      	83.71344       	83.97071       	85.64121       	84.2505        	84.456604      	85.90659       	85.2167        	82.16495       	80.6075        	78.11009       	74.18174       	73.263115      	73.77622       	72.801605      	72.34253       	72.36769       	72.01694       	72.38628       	72.65132       	72.80327       	72.596054      	72.921165      	73.15495       	72.87638       	73.68193       	73.86727       	73.09868       	73.829796      	73.1099        	74.254654      	74.53779       	73.60749       	74.38216       	74.774956      	73.96059       	74.63776       	74.695         	73.39998       	74.03777       	71.12923       	71.79948       	75.03657       	74.61332       	80.208626      	86.92264       	84.79381       	85.13782       	85.14892       	84.97658       	84.66754       	85.62693       	84.53096       	84.678444      	85.01717       	85.219666      	85.36645       	86.31866       	84.727         	84.7074        	85.100845      	84.66218       	84.48407       	85.52449       	84.60995       	
83.66636       	83.74759       	83.44401       	83.60314       	84.322556      	83.4649        	83.90918       	83.76749       	83.78107       	84.1903        	83.71237       	82.98222       	83.30415       	84.59144       	85.73121       	83.65772       	84.65438       	84.41809       	84.50737       	85.43977       	85.07284       	84.14511       	85.12386       	85.02353       	84.03287       	86.10318       	84.63948       	85.12424       	85.168976      	84.36072       	84.701866      	85.4609        	84.84894       	84.59846       	84.67341       	84.92979       	84.927025      	84.65916       	84.90657       	85.40565       	84.556435      	83.07684       	77.27558       	72.83605       	73.03288       	72.4919        	71.99844       	72.4605        	71.899574      	71.774055      	72.6996        	72.78803       	72.786064      	72.46374       	72.42693       	73.32233       	73.27775       	73.37685       	73.03241       	73.92283       	73.70686       	74.11781       	73.3977        	74.06333       	73.72776       	74.07231       	74.21547       	74.32869       	73.59966       	73.98141       	74.02141       	73.64651       	74.473915      	74.27627       	71.77342       	73.327835      	72.03384       	73.734505      	76.16911       	79.619156      	85.269936      	87.18322       	85.795074      	85.02324       	85.13839       	85.81696       	85.606804      	85.20337       	84.65361       	85.05002       	86.04517       	85.15648       	84.96679       	84.59767       	85.39335       	85.403656      	84.70601       	85.5572        	85.00075       	84.82608       	
83.3444        	83.60656       	83.94752       	84.00291       	84.07924       	84.71921       	85.937256      	83.78933       	83.48023       	83.8628        	83.720245      	83.54562       	84.36067       	85.65933       	84.58328       	85.558         	84.73874       	84.28663       	84.59066       	83.37558       	85.18834       	87.2687        	87.61028       	85.65693       	84.980156      	84.79868       	85.93179       	85.751884      	84.51192       	84.23531       	84.635124      	85.16806       	84.10755       	83.939125      	84.3783        	84.71508       	84.175674      	85.1558        	84.54751       	84.2451        	83.35238       	75.747955      	73.36956       	70.90143       	70.95095       	71.69057       	71.9762        	72.26384       	72.83723       	72.284546      	72.89401       	73.329544      	73.71909       	73.34927       	73.683754      	73.88604       	73.49411       	73.49234       	73.873924      	74.13322       	74.50671       	74.22082       	73.70692       	73.91346       	75.05737       	74.561905      	73.82968       	75.373604      	75.27989       	73.57482       	74.73857       	74.90488       	74.34213       	73.94107       	73.80206       	73.68657       	72.91909       	73.02248       	74.2576        	80.45967       	84.46037       	89.288086      	85.8712        	84.96085       	84.991585      	85.358086      	84.814766      	84.87215       	85.5424        	84.52278       	84.92249       	84.92916       	85.14499       	85.356415      	84.76992       	84.825066      	85.03169       	84.33121       	85.02165       	85.51198       	
84.04855       	84.24485       	84.15355       	84.43648       	84.80355       	84.63705       	84.55214       	84.65031       	85.1274        	85.46209       	84.59103       	84.70226       	86.43087       	85.567444      	84.038895      	85.51071       	85.43266       	84.73658       	85.792816      	85.319176      	83.754364      	85.204956      	87.432785      	84.477684      	84.99017       	86.225426      	84.419304      	85.55752       	85.81752       	85.04402       	85.68438       	85.90574       	85.80453       	84.940216      	85.66143       	85.346016      	85.57581       	85.29669       	84.934166      	85.62449       	82.330925      	75.8535        	74.40103       	72.846634      	72.49098       	71.77108       	73.08475       	74.47177       	73.0613        	74.234795      	73.54998       	74.27075       	74.10096       	74.04547       	74.21979       	74.17542       	74.27965       	74.36641       	76.55968       	74.367195      	74.336754      	75.120804      	74.70094       	75.432686      	74.68494       	74.95715       	75.65303       	75.19909       	74.91872       	75.72555       	74.30894       	74.9056        	75.54965       	74.65431       	74.72951       	73.94934       	73.046776      	73.00595       	74.00248       	78.228966      	83.48233       	87.82049       	85.31112       	85.54868       	85.93816       	84.89507       	84.986046      	85.07831       	84.67094       	86.7096        	84.58634       	85.28264       	84.87889       	84.852875      	84.63276       	84.71362       	84.882935      	85.29846       	84.75034       	84.86682       	
84.49305       	84.51694       	85.13377       	85.18674       	84.5821        	84.71592       	84.53952       	84.637825      	84.9212        	84.35979       	84.6185        	84.84406       	84.67831       	84.99443       	84.67888       	85.5646        	85.01647       	85.657646      	85.99339       	85.34111       	85.66545       	84.840614      	85.615326      	85.14867       	84.681465      	85.243484      	84.2572        	85.61034       	86.15261       	85.19995       	84.52432       	85.24766       	85.44913       	84.59142       	84.38349       	84.50007       	84.051895      	84.43872       	85.23504       	85.1326        	83.68563       	77.43447       	75.2258        	73.879364      	72.4383        	72.76126       	72.90628       	73.91074       	73.75689       	74.59969       	74.452286      	73.67055       	74.36451       	74.70288       	74.52536       	75.24788       	74.81345       	73.90321       	75.6378        	78.088295      	74.76923       	75.063736      	75.28898       	75.31448       	74.99482       	75.63986       	75.28532       	75.152435      	75.01744       	75.003876      	74.850235      	74.947395      	74.45161       	74.737144      	74.29052       	73.736465      	72.97217       	73.02941       	73.15376       	76.24643       	81.61681       	88.64342       	83.734146      	84.33198       	84.02028       	85.81759       	85.775475      	84.84609       	84.60145       	85.63464       	84.01668       	85.12232       	85.28718       	84.58006       	86.356476      	84.68369       	84.12698       	85.20534       	85.307         	84.21656       	
83.54852       	84.13398       	84.67254       	84.64324       	84.50849       	84.9535        	84.37435       	84.566795      	83.69327       	84.2043        	84.60463       	83.437675      	84.00191       	84.92163       	84.66762       	85.27083       	84.895065      	84.14915       	84.42512       	85.441         	84.681564      	84.215744      	84.93321       	83.85293       	84.366264      	84.70569       	83.991615      	84.52177       	83.94049       	84.010864      	84.243004      	84.692825      	84.27107       	83.93605       	84.70096       	84.019936      	83.71905       	84.317924      	84.605125      	85.25092       	85.06706       	79.295906      	76.312546      	74.28808       	73.41685       	73.118324      	73.267685      	73.393776      	74.1685        	74.53996       	75.16266       	75.07254       	74.34842       	75.22815       	75.002014      	75.11387       	75.73223       	74.845085      	74.51552       	74.404236      	75.596306      	74.75986       	75.05911       	75.41664       	75.088356      	75.458435      	75.167175      	75.010414      	76.31666       	75.89747       	75.288025      	75.13738       	74.50773       	74.63899       	74.711784      	73.86621       	73.42785       	72.78387       	72.844955      	73.6515        	79.567635      	87.33863       	88.61033       	85.345505      	83.86896       	85.39743       	84.73956       	84.59303       	84.337555      	85.64532       	84.449234      	84.11038       	84.72122       	85.29528       	84.58816       	84.959045      	85.618965      	84.3588        	84.86517       	85.18592       	
84.345055      	84.72154       	84.871735      	85.037224      	84.65758       	84.29686       	85.432304      	84.38414       	84.904076      	85.13243       	85.70668       	85.09537       	85.5568        	85.764145      	86.65694       	84.30937       	85.65391       	86.52558       	85.45845       	85.70775       	86.404755      	85.89186       	85.51265       	85.72241       	85.46106       	86.0655        	84.568054      	85.377686      	85.0518        	85.39515       	86.52166       	84.73023       	84.31593       	85.99058       	86.17356       	86.393776      	85.407776      	84.72652       	85.926704      	86.89752       	85.23726       	80.07628       	77.661896      	74.94858       	73.69694       	73.756386      	73.87958       	74.99987       	74.09119       	75.68142       	74.35433       	75.26058       	75.55723       	75.101654      	75.20467       	75.435104      	75.275635      	75.02671       	76.276566      	75.51996       	75.77384       	74.7796        	75.17254       	75.73419       	74.61654       	74.94841       	75.586334      	75.83836       	74.79596       	76.98653       	76.24108       	75.16763       	75.482544      	75.464676      	75.27949       	74.3501        	73.69223       	73.3565        	72.84929       	74.73425       	78.04302       	84.41893       	88.36135       	84.66495       	85.009735      	84.937164      	84.1907        	85.26966       	85.926544      	85.68425       	84.710304      	85.09977       	84.94986       	85.15659       	84.83303       	84.41159       	85.591385      	85.06904       	85.82209       	84.72909       	
83.430855      	84.14215       	84.52246       	84.91037       	84.62131       	84.782524      	85.13378       	84.459114      	85.76259       	86.63225       	86.13186       	85.701454      	85.9912        	82.86882       	82.37619       	83.3767        	84.40552       	87.62877       	89.494835      	86.80562       	85.71218       	85.87827       	86.602486      	85.54141       	86.08559       	86.042816      	84.98607       	86.10132       	85.61819       	85.918365      	85.35966       	85.925255      	86.45405       	85.63772       	85.10253       	86.13738       	85.89398       	85.22598       	85.90697       	85.86506       	86.414925      	83.22339       	77.091125      	75.88429       	75.2636        	74.180504      	74.42338       	75.53056       	75.632774      	75.58036       	75.65435       	75.26717       	75.832306      	74.93612       	75.25093       	77.602516      	75.298035      	75.73921       	76.60653       	76.29079       	75.691666      	75.40751       	75.344315      	75.7661        	74.65855       	75.491035      	75.70575       	75.506805      	75.314         	75.90181       	74.51978       	75.88961       	74.15455       	75.54421       	75.03329       	74.40037       	73.72655       	73.225426      	72.47416       	73.703545      	77.077065      	83.73655       	89.1379        	86.35476       	85.941505      	86.24106       	86.655914      	84.96868       	86.13385       	85.3081        	85.33283       	85.81037       	84.85598       	85.504456      	85.42357       	85.74699       	85.262695      	85.51863       	86.502045      	84.972275      	
83.55285       	83.68301       	84.48367       	85.95792       	84.6113        	84.31684       	84.805305      	84.910324      	85.185196      	85.74128       	81.601036      	77.75659       	74.76509       	73.58399       	72.85236       	73.335075      	75.756546      	79.59843       	90.12093       	86.67091       	86.29757       	86.43403       	85.80093       	85.87726       	85.438835      	85.06842       	86.24059       	85.73682       	85.0725        	85.41212       	85.890434      	85.07307       	86.04638       	86.14643       	85.71405       	86.41583       	86.026344      	85.95253       	86.45938       	86.87876       	86.2728        	84.05287       	78.63221       	77.094955      	75.559715      	74.44922       	74.42363       	74.34307       	74.06275       	74.86304       	75.79161       	75.60599       	75.97484       	75.17347       	75.639496      	76.62248       	77.66131       	75.592476      	75.61645       	75.37383       	75.42913       	75.3755        	75.79185       	74.89545       	74.90213       	75.9118        	75.03066       	75.19092       	76.07833       	74.53259       	75.373184      	76.49142       	75.37653       	74.87961       	75.3851        	74.170944      	74.20015       	73.54368       	72.50044       	72.56792       	74.72636       	81.49184       	89.81821       	84.753         	85.32104       	85.806465      	85.34155       	85.270775      	85.22466       	85.19787       	86.07162       	85.08972       	86.59107       	85.05475       	84.50588       	85.14494       	85.15887       	85.29654       	86.01405       	84.57928       	
83.80777       	84.06632       	85.77034       	86.62983       	84.83208       	79.343094      	76.3381        	74.46392       	74.686226      	75.03246       	73.921814      	72.8095        	72.64659       	71.71023       	71.54936       	70.60628       	73.240456      	77.19514       	87.50054       	86.79366       	84.92152       	85.53486       	84.814285      	84.92138       	84.80162       	86.3525        	85.245384      	84.66133       	85.96432       	84.51966       	84.27944       	86.41665       	85.66732       	85.03043       	84.87824       	85.057396      	84.872856      	86.32483       	85.5864        	85.65756       	85.52415       	85.25299       	80.44683       	77.916405      	75.69256       	74.446106      	73.920235      	74.335         	74.35274       	75.019844      	75.34627       	75.562325      	75.30393       	74.38129       	75.14982       	75.69347       	75.367676      	75.39999       	76.736404      	76.33193       	75.00675       	75.76555       	75.29238       	75.59293       	75.61749       	75.751114      	76.08655       	75.69914       	76.0585        	75.85866       	75.51559       	75.851944      	75.658714      	75.41915       	75.05345       	74.726295      	74.952446      	73.84025       	73.30314       	72.64173       	74.71344       	79.58122       	84.74662       	86.12738       	85.52124       	84.41981       	84.66179       	84.88009       	84.94329       	84.58135       	85.40046       	85.2592        	85.1566        	84.95245       	84.98913       	85.51224       	85.78956       	85.447716      	85.76592       	85.97208       	
79.05442       	77.959015      	77.09841       	75.50446       	74.08749       	72.70714       	72.28335       	71.67464       	71.77977       	72.0672        	72.18787       	73.45466       	73.7124        	72.48844       	72.121         	70.82251       	72.35038       	74.6253        	82.116104      	89.14367       	86.30809       	85.8859        	86.21666       	85.829575      	86.140396      	86.050026      	85.54907       	85.78671       	86.00773       	85.73843       	85.08272       	84.814224      	86.286896      	85.90628       	85.7155        	86.25106       	85.47008       	85.59228       	84.85266       	86.444046      	85.797386      	86.18284       	83.78413       	78.911194      	76.56503       	74.91638       	74.32166       	74.69071       	75.34069       	75.53827       	74.96825       	75.802956      	75.792694      	75.74209       	74.816315      	75.37471       	75.81424       	75.01135       	76.45653       	76.73439       	76.04454       	75.77225       	75.445724      	75.707985      	75.41979       	75.80724       	75.52302       	75.17958       	75.73332       	75.935974      	75.592606      	75.3361        	75.22685       	76.047935      	75.558075      	74.186676      	74.56777       	74.23261       	73.13295       	72.99087       	74.0593        	78.24439       	84.14061       	88.53603       	84.81108       	85.3314        	85.35985       	86.10488       	86.05963       	85.806816      	85.16931       	85.60965       	84.668686      	85.32827       	85.33418       	85.50423       	85.65541       	84.38691       	86.307526      	85.497475      	
