# www.neaspec.com
# Scan:	 	Whitelight Imaging
# Project:	 	20251007_PS
# Description:	 	
# Date:	 	10/07/2025 13:44:09
# Scanner Center Position (X, Y):	[µm]	49.99	50.01	 
# Rotation:	[°]	0	 	 
# Scan Area (X, Y, Z):	[µm]	5.000	5.000	0.000
# Pixel Area (X, Y, Z):	[px]	100	100	1
# Interferometer Center/Distance:	[µm]	546.342	0.000	 
# Averaging:	 	1	 	 
# Integration time:	[ms]	5	 	 
# Wavenumber Scaling:	 	1.000000	 	 
# Laser Source:	 	4.5-15 µm nano-FTIR laser
# Detector:	 	R
# Target Wavelength:	[µm]	7.502	 	 
# Demodulation Mode:	 	Fourier
# Tip Frequency:	[Hz]	241,340.500	 	 
# Tip Amplitude:	[mV]	45.700	 	 
# Tapping Amplitude:	[nm]	76.624	 	 
# Modulation Frequency:	[Hz]	0.000	 	 
# Modulation Amplitude:	[mV]	0.000	 	 
# Modulation Offset:	[mV]	0.000	 	 
# Setpoint:	[%]	79.75	 	 
# Regulator (P, I, D):	 	4.206850	8.625812	1.000000
# Tip Potential:	[mV]	0.000	 	 
# M1A Scaling:	[nm/V]	0.426	 	 
# M1A Cantilever Factor:	 	1,000	 	 
# Q-Factor:	 	487.4	 	 
# Version:	 	2.1.11536.0
114.57732      	106.88832      	120.181305     	122.09885      	112.16417      	121.71022      	127.381836     	119.114784     	125.39688      	136.44522      	122.585396     	133.3407       	146.44533      	143.81174      	145.84862      	162.06033      	120.49785      	93.57325       	73.99336       	54.3724        	47.026535      	55.269516      	50.640903      	55.46055       	51.18118       	44.917915      	50.978848      	50.270306      	33.89406       	38.76432       	45.615993      	30.511675      	30.708729      	42.00885       	37.98658       	45.88995       	51.056343      	51.906303      	54.76573       	63.479885      	62.10097       	55.20139       	52.60954       	70.881195      	81.715485      	87.18365       	95.34443       	97.262825      	101.463        	95.32988       	98.22743       	94.01424       	93.37306       	100.84467      	100.91643      	95.18228       	98.35999       	92.809555      	89.67322       	95.83301       	98.513824      	92.122894      	88.042145      	100.49683      	91.20677       	91.045334      	102.0728       	97.25036       	88.70252       	96.75555       	103.15519      	86.71888       	93.311325      	103.24582      	85.453575      	95.88478       	98.60234       	90.15302       	94.59588       	102.53121      	90.83005       	89.77049       	102.60946      	86.47415       	88.61607       	105.805305     	90.435356      	86.587875      	99.50954       	96.93934       	87.685165      	92.37104       	101.263596     	88.46441       	92.16016       	98.351555      	93.91387       	89.441055      	89.9095        	90.39234       	
111.8992       	118.79082      	116.32912      	114.29339      	122.76627      	120.34716      	119.38451      	128.40082      	126.87992      	127.23287      	131.08733      	135.41145      	140.88821      	142.99442      	145.99146      	152.92157      	125.70869      	90.72993       	66.87322       	49.724308      	42.182964      	44.972324      	43.78227       	40.94964       	41.22722       	44.81507       	37.30571       	36.755974      	43.10869       	42.58765       	38.52679       	48.031944      	41.691616      	42.590942      	46.43827       	54.64409       	51.86187       	68.52715       	64.69783       	70.406944      	74.06813       	92.98125       	111.483955     	98.91283       	102.0919       	107.44669      	94.72677       	100.21413      	107.94245      	92.05917       	95.66458       	99.89094       	89.01814       	94.49512       	99.91867       	95.55113       	94.09077       	104.212814     	99.113         	91.7691        	95.5306        	96.26903       	91.98444       	94.5684        	93.32689       	91.78678       	97.031525      	97.689926      	92.01331       	93.790634      	91.11381       	94.63565       	94.44518       	92.3055        	87.62192       	93.59856       	93.554535      	96.6148        	96.9601        	91.979546      	93.81383       	100.03739      	94.17791       	90.9589        	94.92326       	89.43444       	94.71973       	93.4284        	91.508064      	92.27618       	92.812874      	100.42652      	91.7474        	92.230484      	98.14669       	98.79858       	89.71819       	92.17441       	93.641266      	96.0428        	
123.19207      	108.82851      	127.224174     	115.959755     	111.65882      	124.144295     	122.55788      	117.759155     	126.14852      	121.03232      	125.18592      	135.26949      	128.94223      	140.6674       	140.75723      	144.16312      	121.165665     	89.14558       	62.337845      	38.232864      	39.291725      	25.213076      	23.81963       	32.06358       	29.913992      	40.946445      	53.74931       	37.984436      	46.725273      	57.11982       	39.787197      	49.758102      	61.364548      	43.637093      	57.324516      	73.0907        	65.23644       	84.69674       	108.96092      	97.36876       	98.23705       	106.484406     	97.21127       	94.9303        	103.97799      	94.32289       	93.77214       	98.822525      	94.73507       	97.46692       	98.33299       	87.30305       	97.295334      	100.00654      	89.82503       	93.24468       	99.6859        	95.30673       	96.26606       	94.67635       	93.6709        	94.89688       	95.40374       	88.73234       	95.63771       	97.41968       	91.54757       	97.505455      	106.60303      	86.35893       	91.90913       	97.658165      	93.50374       	100.50447      	89.51519       	89.011         	102.7058       	94.05812       	95.54729       	106.35943      	95.579926      	95.06652       	99.96723       	98.99886       	92.442245      	95.37477       	97.867134      	85.739426      	99.39681       	97.18498       	92.22215       	101.22785      	97.65571       	96.24529       	104.87831      	103.5693       	98.896324      	98.00855       	94.35744       	92.03456       	
98.28743       	110.361626     	99.58228       	113.78678      	113.10609      	101.648735     	112.91595      	114.55205      	105.99719      	113.82059      	118.66063      	115.590256     	125.96961      	125.96273      	120.16059      	133.9424       	127.99214      	80.45822       	62.461792      	49.380302      	41.30282       	34.06801       	32.01274       	31.983925      	28.818542      	42.912495      	50.50305       	50.366497      	48.649345      	59.738064      	56.367546      	64.37835       	73.25709       	88.78696       	97.56087       	96.97755       	109.34644      	106.75825      	103.566895     	106.59112      	95.33187       	96.29053       	107.45911      	101.021965     	93.92717       	105.80881      	99.03622       	91.23165       	110.01176      	98.94598       	86.36177       	101.509964     	100.0294       	85.88112       	99.07602       	99.87325       	93.220695      	103.37195      	103.059326     	90.6162        	100.92194      	100.42028      	93.44522       	98.97913       	98.03165       	90.697845      	100.174126     	98.510254      	88.698204      	99.11221       	98.82901       	93.335014      	99.25549       	92.781746      	93.27701       	99.69178       	95.603836      	94.83721       	100.99863      	94.7773        	92.50677       	100.65004      	88.488556      	92.01916       	101.087524     	83.30402       	88.20553       	100.45747      	87.46138       	95.20142       	102.16851      	85.84753       	96.81546       	105.108604     	83.705635      	91.84068       	104.964424     	103.56422      	98.85751       	88.297035      	
95.96351       	103.06664      	98.37629       	99.141426      	103.960724     	100.430855     	99.16977       	104.679924     	104.29159      	102.675865     	105.81662      	106.33927      	107.04469      	111.72869      	112.75846      	118.62753      	126.16581      	95.366776      	82.821976      	74.12488       	53.46247       	48.49745       	47.72477       	40.983463      	39.274227      	51.627243      	59.02329       	60.590195      	71.02324       	75.9558        	96.2813        	105.75257      	92.995964      	92.42055       	107.03238      	95.31766       	92.00682       	103.85021      	96.669624      	92.359726      	103.27135      	93.66057       	91.05925       	107.870255     	90.64361       	95.17172       	106.2642       	89.06422       	90.90819       	100.09798      	102.37492      	89.32204       	94.784904      	95.31258       	87.6714        	100.37326      	104.49942      	88.33391       	93.40401       	99.91582       	91.58913       	95.32457       	98.90115       	91.8873        	96.38451       	103.81145      	91.38838       	93.78486       	103.87362      	91.93575       	94.16166       	104.82141      	90.58583       	99.477036      	105.64128      	92.322334      	90.28863       	101.28307      	88.92231       	90.591995      	101.461624     	88.42457       	91.71266       	100.67721      	90.43526       	88.52241       	92.60649       	91.92929       	86.65475       	97.26181       	97.99342       	87.46814       	96.857315      	96.523384      	94.27567       	94.91186       	98.46538       	98.36906       	91.99808       	92.313705      	
97.241875      	95.38012       	90.11133       	100.21406      	92.86427       	90.713776      	98.42167       	91.48093       	95.245926      	99.92045       	97.88257       	99.136734      	102.69247      	102.809784     	100.004555     	115.944595     	114.472946     	106.95507      	107.60777      	75.234955      	57.683884      	72.6086        	60.752018      	47.53458       	74.54787       	99.376495      	91.17236       	102.92053      	102.945404     	96.01367       	103.2513       	105.72835      	91.36138       	105.29002      	106.89993      	94.667885      	97.584915      	97.20517       	87.39218       	98.5848        	101.64376      	90.266884      	97.114716      	104.54213      	95.377         	94.772095      	97.46911       	92.36994       	95.37773       	99.22172       	90.99189       	91.28239       	93.777916      	93.07482       	94.60877       	93.45869       	89.67657       	98.148994      	96.724174      	91.62322       	93.65278       	96.2091        	91.20912       	92.86368       	95.20394       	89.634605      	95.10916       	92.90792       	96.973755      	96.44779       	89.51903       	95.17293       	97.67261       	91.73386       	92.97137       	101.58301      	94.71608       	94.2205        	99.22592       	91.44945       	96.35971       	95.601204      	90.704025      	96.86301       	98.04614       	86.47877       	85.1584        	92.14562       	98.04647       	86.57429       	92.31314       	99.20673       	87.39535       	90.59025       	100.752365     	96.6532        	87.08472       	77.90929       	86.96101       	94.515625      	
101.04898      	88.55502       	95.36248       	80.70686       	83.39059       	95.43559       	80.20011       	87.7255        	99.78771       	81.945366      	86.42003       	99.20826       	83.77656       	81.75529       	97.85165       	96.78415       	86.31575       	98.74735       	109.41031      	103.371956     	102.673935     	98.71182       	95.063446      	101.51782      	92.943275      	99.585464      	102.22201      	90.84375       	95.68013       	99.28992       	94.19266       	103.89474      	110.43441      	95.69227       	88.54805       	101.578255     	97.39059       	93.118706      	99.14352       	95.85109       	97.29749       	99.458916      	91.157394      	92.40992       	100.42221      	94.593506      	89.254486      	97.97777       	92.598404      	92.30677       	96.604004      	94.1178        	87.62118       	92.2883        	95.22543       	89.33883       	94.63705       	96.55034       	94.04245       	94.1998        	99.2192        	90.47016       	94.78761       	92.71463       	93.62202       	102.783585     	91.05823       	87.2786        	101.265915     	95.914986      	95.084114      	102.07703      	90.960495      	93.88286       	104.758514     	89.9681        	93.418976      	106.174446     	93.70466       	92.83946       	100.607254     	92.243355      	92.82194       	98.1762        	91.22265       	92.62865       	93.1676        	89.37748       	100.700485     	98.2336        	87.11133       	99.42874       	106.231125     	99.51078       	104.67864      	99.64645       	87.766975      	77.99756       	78.31975       	79.476715      	
100.20429      	82.83522       	101.249405     	92.192055      	85.51102       	97.34509       	97.73551       	96.11901       	92.52267       	81.30938       	81.49354       	97.0249        	91.20409       	87.5829        	94.42273       	93.34913       	100.29831      	90.79945       	91.35357       	90.777275      	99.367485      	97.80402       	99.084435      	94.359055      	91.295296      	92.84098       	96.391266      	95.22253       	90.539024      	95.634285      	93.20068       	95.14747       	103.223335     	89.02094       	78.80461       	95.77264       	93.89306       	91.792076      	96.847244      	90.92193       	96.54339       	96.8549        	92.05246       	97.3519        	94.8415        	93.799614      	99.22072       	96.428314      	87.48417       	95.55112       	96.53038       	86.33134       	94.0539        	91.60071       	85.53922       	88.50658       	98.87524       	93.052414      	88.213165      	99.862885      	91.80815       	91.12273       	102.03613      	90.12373       	85.305214      	103.99458      	94.23299       	85.55889       	101.643036     	91.32312       	84.20715       	102.7966       	94.64926       	86.034874      	102.39026      	94.85725       	89.8416        	94.55756       	90.337204      	86.77409       	94.03252       	90.24471       	83.03447       	93.73475       	93.83995       	81.79886       	90.061226      	94.37423       	81.95567       	87.74267       	92.033745      	87.50556       	86.7074        	94.26822       	102.21359      	102.72799      	83.5762        	77.83759       	83.07079       	89.22428       	
96.321396      	88.896164      	91.48506       	98.060005      	95.478516      	96.122925      	97.817154      	88.94675       	94.72778       	101.42889      	89.13138       	93.4195        	101.692665     	88.72697       	92.25278       	105.83004      	94.16203       	92.423996      	104.757614     	95.98531       	94.20033       	101.47323      	95.75384       	93.78078       	97.916336      	95.482         	93.88661       	99.092545      	96.35734       	98.7975        	102.05063      	92.77847       	93.97832       	96.69659       	98.892784      	99.30333       	92.67738       	96.81766       	96.04941       	92.11634       	104.44406      	92.411514      	87.96321       	95.79171       	104.49777      	98.12303       	93.82413       	98.13913       	96.45844       	93.89125       	93.26976       	88.222725      	92.08888       	94.04268       	96.4511        	93.587234      	95.09981       	94.88424       	95.48152       	94.672226      	97.969475      	90.88283       	93.20263       	95.23104       	103.709        	90.62092       	91.70473       	99.90675       	90.393105      	100.11378      	96.89537       	91.76185       	88.28214       	96.62129       	96.83411       	86.39428       	96.65865       	98.57174       	88.26923       	97.43409       	98.79768       	87.65941       	94.89601       	100.433945     	84.38192       	99.91762       	105.23975      	82.717476      	90.60124       	99.1541        	86.47335       	81.34181       	102.48783      	104.919815     	88.917206      	101.967545     	94.610176      	84.808754      	84.66386       	88.82216       	
87.389046      	98.56696       	87.02422       	96.14123       	100.68426      	92.11919       	92.08819       	101.610794     	93.12947       	86.63773       	102.61467      	92.924965      	90.0233        	107.282715     	91.320915      	90.76954       	102.04396      	99.11665       	89.86665       	99.86219       	102.39513      	101.35927      	105.59633      	93.34813       	88.268135      	96.64471       	99.03448       	90.55189       	95.78297       	93.000824      	86.176704      	88.851         	91.5456        	90.16716       	90.57369       	95.2379        	92.72173       	90.17225       	93.28934       	88.0749        	86.69272       	94.06733       	91.07012       	92.3309        	101.14869      	96.86727       	87.13048       	87.38753       	96.07214       	99.202934      	100.60699      	91.137054      	98.98409       	89.48012       	88.52867       	95.37432       	93.50659       	95.196785      	102.29066      	89.61768       	92.846954      	109.86051      	90.82427       	85.77047       	98.89122       	97.3715        	85.31896       	99.15986       	97.00495       	83.80268       	98.1184        	102.94762      	87.6342        	91.376724      	95.397896      	87.22555       	89.473465      	96.48625       	88.56154       	92.1668        	96.82067       	92.13642       	91.94473       	97.39233       	92.71162       	87.27482       	95.62587       	96.25603       	87.712204      	93.80636       	100.34583      	96.993774      	93.58216       	100.95797      	97.88004       	98.29347       	111.85777      	115.15148      	102.88663      	93.22505       	
94.66288       	98.20468       	84.210434      	101.58751      	94.60521       	87.797035      	99.48637       	89.11421       	85.30445       	99.74654       	91.75049       	83.8859        	104.61502      	90.849846      	84.41918       	106.09903      	94.08566       	83.06478       	98.60527       	99.99623       	87.31068       	96.33884       	93.350845      	86.63602       	100.228424     	97.85786       	82.79594       	98.23497       	100.3878       	88.651375      	97.3085        	98.81823       	90.94181       	96.16374       	101.19865      	94.881676      	95.958374      	92.38448       	92.379715      	102.67189      	88.3051        	89.167915      	102.97435      	94.01339       	93.511345      	99.54593       	93.94158       	87.45501       	104.35155      	96.45314       	89.66321       	101.56817      	92.752754      	93.13052       	107.08659      	91.08199       	91.88114       	112.13432      	100.47824      	107.844345     	112.97304      	86.848755      	61.9473        	96.452805      	92.988235      	84.145355      	100.914764     	98.311516      	92.177505      	95.70045       	96.36866       	93.5938        	101.85416      	105.3553       	89.653435      	99.71118       	96.45216       	87.62057       	97.2763        	97.2513        	90.14665       	99.23753       	101.61617      	95.15563       	97.19779       	92.329025      	94.94317       	99.995285      	92.75713       	89.2808        	97.8243        	105.733185     	94.14          	100.171295     	108.25451      	104.12935      	101.407524     	98.62627       	95.76282       	94.37145       	
97.9932        	91.48588       	99.4373        	93.915405      	88.107994      	99.26083       	96.941826      	86.86242       	96.18225       	101.27385      	95.60003       	96.47889       	93.76439       	95.79626       	104.17831      	95.31493       	86.31328       	101.68143      	100.14425      	87.73398       	92.44908       	93.09694       	90.80236       	101.58156      	98.40663       	86.87033       	94.45675       	98.45023       	89.47414       	99.882515      	93.69556       	91.98039       	102.78627      	97.194046      	85.32177       	96.4366        	103.58178      	91.47892       	100.63365      	94.90858       	87.16934       	97.72423       	95.31172       	91.396576      	101.92806      	98.48963       	87.16704       	101.84046      	93.433754      	83.69454       	90.997154      	96.297554      	96.903         	88.34539       	94.50977       	94.011215      	89.8614        	101.757195     	99.79483       	87.94463       	94.3538        	103.416176     	90.34124       	96.496056      	95.15662       	90.21138       	101.42857      	105.14265      	84.94499       	94.36781       	101.018036     	92.448814      	87.69937       	98.17128       	85.89141       	90.02294       	98.77801       	88.76816       	93.306564      	94.99306       	94.302315      	94.81335       	88.26275       	87.94667       	86.69207       	90.31783       	92.26538       	92.78083       	94.547195      	84.85434       	78.23223       	85.65024       	99.5811        	100.96908      	96.934845      	103.1678       	105.189575     	97.98964       	96.7542        	94.277824      	
105.601364     	91.18575       	106.4126       	95.14282       	88.317215      	106.21516      	101.37418      	88.792244      	100.65995      	94.22398       	84.06222       	103.55565      	100.61176      	84.18059       	101.29646      	95.85889       	85.633224      	98.92366       	96.31169       	86.552864      	102.07803      	97.08094       	83.77249       	96.333755      	94.34497       	91.97338       	101.36905      	93.75981       	85.83993       	103.87419      	97.420425      	88.22656       	101.18611      	91.13427       	93.76006       	100.8866       	87.89164       	88.87859       	100.86665      	92.039764      	89.54361       	101.7627       	91.39564       	94.31988       	115.55775      	90.05347       	84.93336       	102.321304     	96.11402       	89.517944      	98.14102       	93.38651       	84.47063       	101.76393      	96.12843       	81.3662        	100.684616     	99.63912       	91.28048       	99.0038        	94.78563       	82.58077       	100.67347      	94.369736      	74.130455      	96.14953       	96.03692       	80.11634       	96.81496       	94.14376       	79.03244       	93.97873       	104.335686     	77.92245       	84.590034      	99.433266      	92.708305      	95.53992       	94.384834      	90.350746      	99.02698       	101.700966     	91.123535      	99.21317       	97.36748       	94.63071       	96.066574      	91.34096       	93.526         	91.85498       	93.94182       	94.2081        	96.870224      	91.46728       	105.22663      	109.08122      	104.04964      	86.50041       	83.723465      	86.08344       	
97.14066       	93.11304       	93.7096        	96.40048       	96.527084      	92.89113       	96.03968       	96.45919       	95.69739       	94.312515      	103.42353      	93.492905      	89.406685      	103.0704       	93.191414      	93.491264      	105.21363      	91.188965      	96.20114       	101.06762      	90.99598       	92.82308       	96.919586      	92.69279       	88.820465      	94.867584      	92.202934      	92.071335      	94.159676      	92.623215      	91.876465      	93.37903       	97.63004       	92.52774       	90.85883       	95.21648       	94.00997       	94.50713       	98.36293       	93.32832       	92.73237       	100.510735     	92.10531       	102.72769      	111.312706     	89.48985       	81.74421       	93.38534       	94.42798       	83.43884       	94.28825       	93.07298       	81.23579       	87.33346       	97.44207       	82.28044       	100.1893       	97.160576      	87.778206      	101.46676      	101.94291      	84.3645        	96.79555       	99.589806      	93.14731       	94.05136       	96.69069       	92.45474       	93.67502       	99.311035      	95.041595      	93.733536      	94.42965       	92.952095      	95.51832       	93.71922       	91.87032       	91.86136       	95.95253       	90.51717       	91.25432       	93.970985      	93.01888       	95.43731       	94.98174       	94.31552       	96.39186       	90.65846       	91.01815       	94.27377       	95.20246       	91.78662       	95.091194      	91.92799       	91.44991       	103.57311      	102.89088      	96.965416      	94.81884       	91.71736       	
103.20369      	94.74643       	92.74178       	100.75335      	87.443245      	100.124725     	99.79161       	86.0305        	101.62444      	99.1695        	83.43658       	100.71972      	99.35357       	92.33548       	103.441086     	96.81918       	90.923676      	102.621185     	99.02878       	90.17488       	104.64131      	93.08175       	88.55655       	109.00789      	85.477875      	85.71062       	103.76686      	91.51246       	86.02951       	100.46153      	91.82317       	82.00888       	103.22627      	92.81201       	78.46203       	101.038605     	90.59807       	87.61962       	96.513214      	86.063065      	82.66733       	99.12613       	94.402626      	81.703476      	98.17702       	91.554756      	85.28073       	98.95513       	87.08455       	82.06625       	98.54758       	90.27477       	79.86373       	94.24373       	87.233444      	84.52412       	95.16256       	100.886475     	89.28848       	91.718956      	81.801796      	88.611824      	99.397026      	92.03946       	91.68963       	100.764946     	89.813324      	92.66907       	103.71041      	90.73115       	91.37419       	102.51871      	88.12857       	95.44627       	101.50755      	85.33672       	87.12537       	99.82596       	87.74476       	97.74765       	99.11495       	86.670616      	96.64965       	107.76873      	99.893265      	95.396355      	104.560555     	93.32972       	99.846886      	107.65445      	91.20293       	104.523224     	115.70019      	96.37655       	104.23793      	117.486725     	113.62821      	71.1531        	40.484276      	32.445457      	
101.59301      	96.108955      	102.46858      	99.561775      	92.78706       	102.40243      	97.98638       	92.367546      	102.875435     	97.65966       	89.57573       	96.643394      	106.559586     	88.174965      	94.03691       	103.71266      	88.25537       	99.15624       	103.56844      	89.30809       	99.257416      	102.16769      	83.42611       	96.39305       	99.09351       	78.91365       	93.355415      	104.423874     	84.34656       	92.85364       	102.543076     	84.89592       	100.780014     	99.68157       	81.521805      	101.70455      	99.97071       	80.95625       	102.587326     	101.118034     	87.8422        	101.28044      	103.44042      	84.51083       	102.50255      	101.55973      	86.59729       	105.300385     	100.00693      	93.169075      	107.201836     	95.60381       	85.90165       	105.604485     	100.47936      	86.882706      	104.10291      	102.50965      	93.349174      	104.280556     	109.06575      	91.796074      	104.08339      	107.21803      	100.95674      	103.01185      	105.54964      	97.8717        	109.22173      	108.72998      	101.79028      	108.03243      	108.17493      	113.07455      	109.74902      	106.551094     	110.29643      	111.537025     	107.0641       	109.256714     	109.93168      	110.5316       	114.921875     	113.342285     	111.25651      	120.95921      	117.12776      	109.94292      	115.89924      	135.16753      	133.64244      	110.06478      	109.82679      	90.649         	77.14367       	69.91141       	56.5682        	39.60574       	31.876518      	26.632193      	
86.7102        	106.613075     	94.121666      	101.52865      	102.0242       	91.48186       	100.09199      	97.71513       	91.89835       	106.29881      	104.471664     	84.341835      	99.761505      	107.89437      	85.18818       	95.39425       	105.88903      	84.91774       	100.00248      	109.917114     	83.4371        	106.75305      	106.14019      	82.634766      	100.296234     	101.527435     	75.9051        	95.81022       	110.269135     	93.06397       	91.59985       	108.73145      	88.366455      	92.292435      	113.82248      	89.535164      	90.05528       	106.8951       	94.40418       	90.747185      	101.26506      	94.13891       	95.72597       	105.20265      	92.62249       	92.32946       	102.47836      	94.237785      	99.17924       	104.761475     	95.17383       	99.9618        	104.07434      	91.69225       	93.39282       	94.86996       	97.68392       	107.22867      	110.80172      	99.56349       	111.176956     	113.61291      	99.02299       	111.95318      	116.14156      	103.745766     	117.86748      	114.533195     	105.52164      	115.674164     	120.20921      	106.326836     	123.433266     	123.026695     	106.78728      	130.38066      	126.59825      	105.81201      	125.9379       	132.53601      	113.15902      	127.63268      	137.75201      	121.31271      	131.64908      	147.90244      	128.64897      	149.02025      	132.6389       	93.12105       	74.45846       	77.90624       	59.59414       	48.43256       	60.06451       	47.216896      	32.56889       	34.483932      	45.392574      	50.159054      	
99.18057       	96.287544      	95.47491       	95.7216        	99.33241       	97.01025       	93.58546       	101.75429      	98.01596       	90.54511       	94.57183       	101.00384      	97.98003       	89.187775      	94.49515       	98.69512       	95.27571       	95.20166       	97.96809       	94.06672       	98.54952       	99.12531       	91.66146       	99.629776      	97.44777       	94.42786       	101.02351      	102.29565      	92.471054      	97.02107       	107.82947      	94.31033       	95.25455       	98.05722       	92.218765      	107.49069      	99.145454      	88.695885      	105.92913      	99.24318       	90.681465      	104.77452      	97.36691       	85.47248       	110.37898      	110.22407      	90.36535       	110.74695      	106.26429      	94.9432        	110.8929       	106.60079      	98.73373       	110.2376       	104.79883      	94.45079       	105.89812      	107.115524     	102.351395     	108.52039      	108.6447       	106.89087      	113.2682       	113.57606      	108.96493      	113.424484     	111.16566      	119.57612      	118.73494      	111.00438      	116.563896     	125.58778      	124.47921      	115.88225      	123.11281      	123.83339      	127.249115     	129.9059       	126.43006      	133.7069       	138.61325      	137.10522      	136.652        	145.39996      	142.40965      	159.76242      	145.49951      	93.30203       	63.21869       	67.49747       	60.99726       	50.057354      	48.12376       	49.634945      	45.63084       	50.047386      	58.53315       	54.32876       	43.283516      	36.233753      	
99.656364      	100.382614     	100.00993      	90.10978       	101.76063      	101.54756      	85.63449       	102.128555     	101.530396     	87.86858       	101.60628      	96.53235       	88.45084       	96.31861       	99.54803       	89.49028       	102.1549       	96.86138       	92.91675       	106.999985     	92.22269       	91.89235       	99.24338       	97.75952       	90.3268        	95.95529       	100.06894      	85.37305       	97.71213       	104.41134      	90.28113       	96.80762       	102.83332      	98.29926       	91.47836       	101.38928      	97.92498       	96.94036       	104.84068      	91.62188       	97.264656      	107.23272      	95.14938       	95.05885       	107.34013      	100.89532      	95.39998       	103.64059      	101.23514      	94.11626       	108.498726     	107.35046      	100.51977      	108.38378      	105.81086      	102.47572      	109.6421       	107.54033      	102.17689      	117.59653      	112.82146      	102.61571      	120.71608      	119.56017      	106.07056      	122.69125      	121.43791      	111.79574      	128.48233      	119.975746     	120.11323      	136.02342      	125.78122      	124.79009      	136.88199      	127.1315       	136.21239      	143.2529       	141.02168      	146.63522      	152.20483      	138.14426      	139.23805      	160.5447       	168.55641      	125.73967      	89.124825      	59.53699       	55.412033      	60.87048       	48.5337        	55.69013       	60.01387       	47.60949       	54.13041       	58.78855       	53.935482      	44.376423      	43.85403       	48.120163      	
98.239975      	99.266075      	95.90378       	97.847404      	105.793        	92.126335      	93.579025      	101.74964      	98.77785       	93.687         	102.99184      	95.75786       	88.542816      	105.510284     	95.32951       	87.80384       	104.94294      	97.05989       	93.17168       	99.219574      	97.07437       	95.97242       	106.57106      	96.53511       	96.50538       	99.31698       	95.825554      	98.20581       	100.22823      	95.05159       	99.28242       	101.48861      	95.88549       	98.40376       	99.75601       	95.24663       	104.21336      	99.40263       	92.165535      	106.63764      	101.52862      	98.95928       	102.173515     	105.75007      	96.805         	105.66875      	105.942635     	98.03989       	110.08854      	104.94055      	102.22016      	112.36738      	107.81154      	101.68261      	122.96455      	111.985756     	98.672356      	119.00705      	112.64898      	112.49863      	126.99826      	115.30379      	111.95401      	129.79611      	119.50169      	118.016396     	129.50845      	119.291504     	119.243805     	138.96944      	123.2773       	120.450035     	142.08963      	129.67682      	123.92651      	144.33171      	134.37978      	133.51685      	154.2663       	145.28648      	141.89526      	162.45543      	156.36998      	167.42987      	155.89333      	97.29996       	75.90815       	74.47631       	56.545235      	51.4102        	62.031548      	57.23725       	48.68232       	72.22234       	58.850708      	37.867363      	55.174126      	65.24529       	59.513424      	55.979366      	
97.577896      	99.68842       	107.69971      	95.46135       	98.37039       	105.437675     	98.36463       	97.13565       	99.94301       	96.7484        	99.03389       	102.60345      	96.063774      	99.30307       	101.08671      	100.21269      	99.29138       	100.23282      	100.09453      	99.319084      	107.55728      	100.01751      	97.05324       	104.158455     	100.32492      	101.49238      	97.37167       	95.26714       	100.853836     	95.53315       	104.649765     	102.25663      	98.13304       	100.5711       	100.93457      	98.12358       	98.24102       	97.42309       	99.47716       	99.78205       	103.47869      	98.77817       	102.365        	102.203255     	102.518974     	102.61405      	103.266396     	100.05828      	100.57471      	111.292465     	99.51615       	100.31682      	106.84062      	105.80081      	106.23598      	106.25778      	105.313736     	109.30492      	111.460884     	112.22237      	112.35466      	115.30348      	114.43486      	122.49279      	121.62918      	114.83154      	120.16857      	126.03702      	122.93721      	123.18062      	123.327065     	129.41312      	129.79523      	132.04192      	132.81593      	129.60052      	137.74242      	138.79057      	139.52179      	144.06644      	154.84714      	150.24455      	156.73389      	171.94559      	142.8701       	110.77359      	88.04947       	64.397934      	56.80591       	65.65868       	58.814407      	52.896214      	64.93001       	67.96516       	57.544163      	60.680546      	59.618332      	50.387367      	45.803288      	47.30137       	
89.109406      	98.63399       	86.47354       	98.27201       	96.04708       	95.34518       	100.869064     	92.82262       	92.48079       	102.77291      	94.79472       	94.83947       	99.22559       	91.68757       	90.31408       	107.74212      	90.50363       	84.92072       	106.280464     	94.337006      	92.2422        	107.83029      	93.80192       	89.62875       	103.22575      	96.01988       	88.26657       	100.35645      	90.32          	91.00737       	103.80818      	102.41923      	102.09432      	106.15673      	97.39378       	95.56882       	103.13099      	99.26362       	92.595         	105.74759      	102.249725     	91.99344       	105.346        	98.95326       	96.36929       	112.57022      	101.274216     	92.37747       	108.11853      	107.72757      	94.71486       	104.97389      	107.01327      	96.451645      	106.505424     	111.069        	99.25561       	104.75569      	111.92402      	110.26063      	109.34958      	114.036415     	108.02739      	116.36125      	120.36076      	106.95999      	113.175674     	122.929436     	116.765785     	119.66259      	125.10423      	120.03906      	120.66562      	123.766884     	124.816925     	126.709526     	127.63866      	128.06654      	136.47427      	132.6025       	130.41022      	144.4853       	140.9572       	146.51923      	151.94714      	115.52979      	93.848114      	84.32687       	57.20358       	55.93757       	60.81232       	49.83342       	63.26154       	65.5708        	42.16366       	52.398922      	62.772163      	59.35358       	50.404686      	44.065247      	
102.87329      	100.10717      	99.136604      	94.17652       	100.625786     	101.340805     	94.26456       	96.67171       	99.35725       	92.78369       	99.81438       	98.8695        	88.700195      	98.228035      	103.66464      	95.68099       	95.843376      	103.76488      	97.26543       	102.37706      	104.497696     	97.490326      	98.16002       	105.94997      	102.431244     	96.99259       	96.051674      	97.73182       	92.41268       	99.33249       	101.661545     	90.53545       	97.14572       	104.55711      	100.11762      	101.24107      	97.10086       	95.15962       	99.7757        	103.51806      	92.930824      	96.421684      	108.30314      	94.56209       	104.78035      	109.49677      	97.75216       	100.67261      	113.4592       	106.903534     	98.11913       	116.18217      	107.24113      	104.40711      	113.737686     	110.2602       	101.62879      	114.20319      	118.6029       	106.20384      	120.60583      	119.834114     	110.86617      	125.086494     	127.97538      	110.8778       	122.496346     	127.2192       	113.4082       	119.58695      	125.91318      	116.5946       	124.2465       	129.1163       	119.67315      	128.7302       	136.80234      	128.55043      	137.98033      	141.85118      	134.73936      	138.44923      	145.62291      	153.79533      	155.60724      	127.89575      	100.52418      	77.25088       	73.249         	58.62247       	49.869663      	63.70427       	69.390175      	58.681736      	51.065453      	50.463474      	54.491215      	61.03015       	62.55141       	56.27236       	
97.34898       	96.67274       	96.2065        	97.28676       	94.337326      	98.079216      	101.31729      	94.83521       	96.224014      	104.327225     	96.53615       	97.93335       	102.73922      	98.48439       	94.60412       	105.01358      	102.57735      	94.837906      	102.55839      	102.3802       	91.299934      	100.94781      	100.406944     	88.22503       	108.20695      	105.331856     	87.77242       	101.32797      	105.89163      	91.20175       	94.16757       	105.45352      	91.72217       	97.23492       	105.37902      	93.60181       	96.22607       	104.84706      	96.20203       	100.52965      	104.24427      	94.02361       	102.562515     	111.6298       	94.331505      	102.50157      	112.603096     	97.35791       	100.08678      	111.54424      	104.72412      	105.64765      	110.930046     	103.020134     	108.04818      	111.618        	102.446205     	107.552765     	117.257195     	102.826614     	113.748795     	120.190605     	121.07043      	111.41934      	116.37923      	119.8372       	111.25987      	120.67818      	124.23413      	114.41358      	117.04008      	128.12677      	122.16966      	122.580475     	131.64703      	131.90445      	129.83678      	139.42215      	136.18665      	137.16486      	145.34601      	146.17133      	150.6183       	157.12856      	162.431        	135.52663      	109.177574     	84.641235      	65.59137       	54.998623      	53.476826      	63.360657      	57.18227       	50.066994      	61.542603      	59.669884      	53.07475       	51.88279       	54.623604      	56.885155      	
96.76407       	93.1628        	100.03931      	99.31645       	88.92655       	102.370026     	96.563324      	95.99964       	101.60725      	96.04963       	97.02739       	98.04581       	98.27056       	99.54415       	101.27287      	96.04229       	102.71258      	100.6289       	94.435844      	97.58382       	97.16195       	104.50435      	101.991035     	95.6953        	108.775604     	98.75517       	97.6054        	105.990395     	100.68771      	95.1065        	104.73311      	106.27433      	96.7437        	103.73976      	103.79344      	100.89095      	105.504265     	108.11129      	101.254715     	102.811386     	104.617935     	107.540985     	102.46436      	106.90539      	109.75827      	106.92867      	111.750626     	109.10707      	104.720695     	109.10068      	112.347496     	110.01844      	112.434586     	120.31123      	111.63808      	100.26486      	77.51542       	51.373207      	49.14703       	59.849976      	70.44372       	91.109146      	108.57146      	110.756065     	116.80814      	112.0622       	116.81322      	119.96152      	113.98042      	118.555435     	127.73372      	118.061935     	120.65496      	128.19339      	120.05033      	126.25707      	132.77232      	123.85817      	134.74538      	140.92328      	135.4791       	141.6035       	148.36827      	147.10638      	163.43509      	159.99265      	98.02437       	79.07662       	70.603775      	54.41119       	59.740173      	63.868973      	52.08871       	57.13045       	60.14985       	55.900227      	49.933872      	56.357506      	57.788265      	60.34687       	
94.53406       	99.74092       	94.436554      	100.02645      	104.08554      	93.17436       	93.68564       	104.88082      	93.99577       	93.61056       	102.57911      	97.14235       	93.76332       	101.04527      	103.34523      	97.60843       	99.393105      	105.10566      	101.19671      	103.68408      	105.40597      	101.92022      	103.03848      	107.42469      	106.47213      	104.465706     	108.53094      	107.01006      	100.38166      	109.17892      	109.7815       	101.58256      	108.149376     	116.132416     	107.92347      	105.10592      	116.68977      	107.35231      	110.03619      	117.72969      	108.86633      	112.675766     	118.30223      	115.551994     	117.33603      	125.73174      	118.478325     	115.833046     	123.622665     	133.60509      	115.76647      	109.129395     	94.300224      	67.65846       	61.285194      	55.20971       	33.529564      	28.739714      	27.075243      	23.070604      	31.077751      	55.31044       	98.35776       	111.44657      	116.3219       	111.8221       	110.28348      	116.470955     	116.83945      	119.708466     	124.80035      	117.0516       	126.51978      	130.57274      	127.94034      	123.76974      	132.74196      	129.81302      	132.42502      	135.0983       	137.43762      	141.3163       	144.76584      	147.8917       	155.7176       	157.00957      	119.924614     	101.16914      	79.6628        	63.69839       	54.920086      	56.060627      	64.71434       	59.193974      	61.226036      	64.724434      	62.538162      	55.78394       	52.70815       	55.170525      	
95.81746       	104.76071      	103.76592      	98.58068       	105.415        	98.76534       	96.839714      	111.63685      	101.82089      	98.150665      	113.0688       	101.862465     	104.618034     	115.72194      	100.55265      	97.41629       	114.544075     	102.016975     	98.97165       	116.611206     	101.54492      	102.21765      	116.70576      	105.5044       	102.170654     	120.36286      	110.024185     	103.81727      	116.9164       	113.48017      	103.72664      	118.403244     	120.09258      	106.92182      	123.00538      	119.64527      	113.23845      	125.825005     	123.11942      	118.71912      	131.64638      	130.152        	119.24011      	144.35446      	140.97191      	132.14355      	159.26564      	127.53273      	80.520424      	79.64766       	65.37994       	51.173706      	53.350914      	40.304825      	26.40378       	41.925564      	33.271736      	22.380129      	33.619297      	25.479706      	28.547188      	55.30804       	93.51393       	105.34433      	115.4841       	119.17117      	109.68574      	116.371185     	119.715195     	109.87123      	123.59538      	125.36626      	108.41635      	122.62056      	133.05098      	118.031        	125.71181      	131.34593      	125.88121      	128.77089      	138.45567      	134.41092      	138.68462      	145.44978      	144.9362       	164.21902      	130.1965       	93.25868       	85.26496       	69.15752       	56.0469        	55.759464      	58.42702       	56.216072      	60.112263      	61.824257      	59.397984      	56.935665      	55.845177      	54.155148      	
105.22536      	100.32206      	109.69115      	104.78723      	94.25076       	103.81429      	108.944374     	107.42844      	101.868126     	109.24381      	105.76205      	103.5668       	110.8471       	110.62409      	106.82115      	110.583725     	112.1111       	111.43315      	112.5501       	108.08004      	110.773926     	115.34261      	115.17011      	111.63154      	116.947624     	116.81142      	115.57918      	119.10991      	117.45218      	118.06539      	125.13956      	127.47584      	126.45998      	128.07655      	128.02817      	131.70258      	136.81456      	140.14896      	139.93582      	145.47293      	146.60728      	153.63882      	137.41138      	120.436516     	92.056435      	85.17189       	79.08865       	60.190617      	55.42601       	56.945736      	44.497684      	52.267593      	46.500874      	38.029076      	44.728535      	37.497837      	29.009909      	43.231365      	26.98697       	15.347154      	40.15699       	60.82284       	83.24831       	104.29005      	112.25755      	112.24216      	109.9316       	116.006096     	119.16334      	113.96549      	114.44881      	123.492386     	127.118        	115.407234     	122.80022      	129.14783      	123.06832      	122.64904      	140.41147      	131.10927      	130.26279      	147.59726      	149.74503      	145.9061       	152.3937       	166.56308      	128.41998      	110.25667      	76.6283        	57.9509        	69.886734      	62.10807       	51.80826       	63.267044      	60.473145      	55.07189       	59.833744      	65.329636      	68.080124      	60.805954      	
99.87074       	107.17939      	109.06835      	100.56153      	110.54549      	111.04471      	101.898575     	115.01938      	114.17015      	102.804146     	117.49215      	116.75026      	99.52124       	113.4021       	114.62342      	114.8734       	112.74019      	113.359375     	117.00139      	119.50713      	121.04704      	118.21354      	117.73935      	117.573814     	126.07317      	129.7634       	119.82545      	124.89568      	131.79243      	131.29468      	136.16263      	140.60085      	136.42122      	142.31978      	148.86082      	138.79079      	154.93517      	165.9676       	136.36436      	116.949135     	104.38525      	82.18981       	73.52824       	71.06275       	65.17048       	50.927433      	57.228275      	56.352417      	46.97073       	53.79175       	53.54454       	43.993126      	46.45335       	52.37542       	38.95236       	39.119717      	38.05447       	25.693935      	25.212364      	35.28079       	25.833752      	42.596237      	82.41316       	107.615486     	117.01503      	116.72072      	107.281494     	114.05464      	126.17603      	114.23402      	115.08379      	127.71         	118.43393      	121.40869      	138.65215      	122.34207      	120.197174     	141.16612      	130.96123      	126.53586      	145.56612      	140.82147      	135.1614       	157.98322      	156.91823      	159.37767      	158.32118      	113.84066      	85.21728       	81.59411       	62.32514       	50.69534       	67.66232       	67.730316      	50.391727      	61.357376      	73.53271       	70.60737       	58.75018       	52.525692      	
88.91935       	113.96965      	108.34278      	112.458405     	121.61242      	112.54534      	110.74291      	126.933334     	110.64714      	110.392075     	123.94059      	114.392685     	113.17835      	123.946945     	122.285645     	117.7232       	123.6784       	120.07266      	116.44854      	130.87564      	129.47469      	120.61315      	135.3818       	131.33017      	128.22801      	145.33401      	133.84464      	127.944786     	141.6087       	144.8996       	137.1575       	149.14182      	155.81645      	141.77936      	134.99289      	110.83284      	86.10937       	92.565155      	81.050385      	60.784748      	66.38525       	69.27482       	54.2351        	61.82728       	66.60293       	49.862064      	56.640076      	57.34857       	47.148964      	57.72261       	52.84796       	36.898643      	53.509315      	52.096695      	31.37921       	40.52624       	45.07845       	25.909441      	31.441525      	31.62544       	15.291212      	36.19146       	76.17718       	96.167496      	114.23699      	118.794235     	101.38524      	120.29963      	122.30334      	103.604904     	118.83854      	127.77018      	114.20158      	123.07127      	128.9186       	119.35753      	126.82047      	132.58737      	127.95948      	138.32477      	140.47368      	132.88057      	149.56532      	152.14235      	140.55893      	160.22513      	166.37186      	118.90316      	92.65024       	79.046684      	66.58765       	57.22147       	68.17857       	66.78427       	59.608887      	67.41539       	72.40217       	67.92886       	62.08691       	55.95704       	
119.04449      	111.250984     	118.027054     	118.44302      	112.771416     	116.59423      	122.39372      	119.27155      	117.17357      	121.62177      	122.28502      	122.94986      	122.05014      	127.1923       	132.18585      	122.19866      	127.72918      	135.92172      	132.96535      	131.16336      	145.77213      	139.64865      	138.22665      	146.66678      	150.00179      	145.76402      	151.89928      	151.92955      	162.82399      	152.51445      	129.67455      	115.13123      	104.10139      	93.89216       	82.57775       	74.75245       	71.61872       	66.01766       	68.89535       	70.33461       	70.42354       	62.808487      	62.6452        	70.23985       	63.741604      	57.187447      	59.531612      	59.049423      	52.86937       	54.904335      	54.67133       	53.32576       	51.59064       	49.980637      	51.586285      	43.841434      	37.779716      	37.9691        	29.98567       	31.296476      	25.9473        	28.374813      	59.69104       	101.064705     	110.56581      	120.161934     	117.893295     	113.10058      	121.88583      	126.73734      	117.26037      	122.56607      	126.09622      	120.512505     	123.51412      	132.92636      	120.873375     	128.08632      	134.36937      	133.9898       	133.65077      	137.74869      	139.80507      	139.55498      	150.087        	149.09512      	163.09816      	131.65521      	98.77401       	77.523674      	65.356766      	56.89407       	58.266644      	59.699295      	59.375786      	62.361904      	64.50294       	59.564877      	56.512142      	55.12698       	
114.48538      	115.930305     	121.843735     	115.71011      	113.43147      	125.08434      	120.854614     	120.55527      	123.27567      	120.5092       	124.69593      	130.12598      	129.41544      	132.61531      	133.94179      	132.80832      	135.86386      	144.4706       	140.25822      	141.09634      	153.68129      	151.02962      	148.49902      	157.5302       	164.95201      	167.65877      	178.61252      	137.41293      	98.299675      	92.80055       	80.7432        	76.17049       	74.21711       	65.03166       	61.37136       	67.74793       	74.94577       	62.589634      	61.208244      	69.99043       	60.530758      	58.16067       	71.29329       	61.0298        	56.45679       	63.571663      	57.21411       	56.730522      	60.587173      	51.638107      	54.130253      	54.839603      	48.954666      	45.787758      	45.55401       	44.56376       	36.075127      	41.83222       	34.966183      	29.457598      	28.146435      	36.025867      	42.123394      	87.57197       	120.22289      	109.307205     	111.51189      	120.884155     	110.08037      	112.51723      	123.11707      	120.25085      	116.62257      	126.14305      	127.9884       	122.77257      	134.15782      	130.97607      	125.176025     	136.5497       	138.69557      	135.49992      	142.73155      	150.73839      	143.06015      	154.96828      	175.08319      	133.41493      	98.973145      	86.746086      	67.88846       	58.172134      	61.76214       	59.85126       	62.656223      	70.21707       	67.86373       	60.390713      	59.924904      	62.93792       	
120.15053      	112.88908      	121.55932      	124.01087      	117.586754     	124.37682      	129.16277      	119.663574     	128.0818       	137.62877      	123.63302      	132.60745      	143.52977      	135.30807      	136.02605      	145.50941      	141.10538      	144.89653      	154.1352       	141.25449      	154.33527      	166.76482      	153.5018       	164.31613      	194.0408       	153.34657      	116.18192      	91.76171       	75.15975       	71.28792       	74.74649       	69.18663       	75.84623       	73.131714      	71.07848       	73.21617       	76.27019       	66.84608       	68.47463       	79.323204      	64.57846       	61.200203      	71.89363       	67.40374       	65.2049        	67.20068       	59.594566      	59.738403      	67.28482       	54.164814      	51.11912       	64.40462       	51.12942       	46.495914      	61.292973      	46.914047      	36.83004       	48.22675       	44.050335      	23.071852      	23.505932      	32.960537      	40.979973      	79.703804      	109.94727      	108.3383       	120.66125      	116.96181      	115.226845     	125.95109      	118.92268      	114.676025     	126.877594     	125.80944      	124.85706      	124.03287      	123.83898      	132.51463      	131.89584      	135.65903      	137.06798      	140.62874      	138.99196      	149.94342      	156.4645       	151.15884      	166.63278      	158.58461      	113.604416     	87.8507        	79.0572        	59.865414      	58.481266      	61.73464       	62.9349        	61.34568       	60.75204       	61.264046      	60.826286      	61.20855       	
114.15327      	119.169266     	117.19703      	122.746284     	121.8147       	120.14432      	128.55263      	133.78366      	127.365524     	130.57002      	133.28766      	130.42584      	137.01508      	138.45607      	133.11269      	144.44489      	147.52667      	148.16231      	149.46666      	154.6704       	161.52829      	158.18658      	168.01112      	179.39421      	168.72502      	125.00546      	98.344604      	82.30699       	67.65427       	75.69469       	76.54787       	70.84325       	76.921364      	73.40353       	67.82381       	73.90656       	71.14794       	71.50955       	68.39701       	69.07889       	69.49415       	73.01507       	70.97679       	65.387886      	65.955574      	64.336975      	64.679756      	61.650852      	60.403233      	61.571133      	57.349033      	55.142033      	57.097332      	56.16744       	49.401917      	53.80723       	55.447735      	40.190674      	38.828087      	34.107628      	25.568956      	26.875685      	35.919884      	69.410446      	105.40206      	112.062706     	112.83039      	116.710365     	116.62636      	108.21607      	115.75754      	122.90182      	113.105484     	118.930466     	127.33283      	116.78294      	124.22857      	129.28296      	123.58804      	127.62959      	131.26547      	126.99737      	137.01979      	140.71774      	130.99371      	134.74608      	150.02063      	160.85204      	117.1457       	97.19256       	76.2599        	51.056515      	62.150078      	64.165886      	55.112446      	62.29214       	66.97255       	66.56357       	63.927246      	57.882442      	
117.04314      	115.673004     	124.78502      	117.05095      	115.62409      	129.92049      	122.73059      	125.448        	133.6647       	123.70752      	122.83808      	143.42561      	137.30519      	126.62141      	147.8391       	143.25952      	140.3512       	153.87784      	152.45119      	149.79768      	167.2455       	164.24132      	169.87679      	181.7409       	139.40016      	112.967094     	96.908035      	78.9217        	66.0878        	74.90026       	77.195305      	64.15315       	76.29718       	71.50137       	66.029076      	77.10071       	75.21421       	71.25263       	71.84579       	70.471855      	71.39418       	68.851746      	66.96544       	64.497665      	70.417465      	64.10186       	65.67446       	70.28243       	58.169716      	59.848915      	65.70823       	56.642067      	55.752693      	57.939182      	48.818497      	47.144775      	52.94996       	42.528664      	32.41257       	40.196022      	28.970032      	24.974688      	41.34969       	53.622604      	88.67492       	119.39396      	118.521126     	111.80816      	119.08818      	120.32158      	113.42795      	121.24829      	121.29389      	117.50621      	122.82336      	123.86984      	124.884346     	129.47975      	126.610596     	125.17762      	135.34415      	137.5744       	136.68112      	140.67943      	148.23412      	146.86017      	159.87273      	174.27667      	121.910324     	102.570015     	83.52503       	72.68891       	70.12193       	59.557957      	53.09293       	58.745667      	68.27623       	68.567825      	64.25054       	54.421368      	
119.505165     	113.81185      	127.61307      	121.99154      	116.40475      	126.74902      	133.8776       	124.090485     	124.80083      	133.89561      	128.80438      	138.84528      	140.50522      	133.39139      	145.97336      	140.96019      	139.06065      	151.06087      	150.10687      	143.13483      	158.09334      	165.35802      	166.85481      	176.60611      	153.83183      	123.94866      	102.030045     	83.70393       	72.83713       	77.18425       	71.47815       	72.77711       	81.60686       	70.26301       	70.118484      	74.9993        	71.54987       	64.94874       	75.44827       	67.499794      	69.62094       	74.88685       	68.74763       	59.906723      	67.65033       	66.380135      	57.439713      	69.86956       	62.63328       	52.418198      	57.256794      	60.04401       	51.013412      	48.8541        	53.60809       	45.70433       	42.85034       	45.936947      	36.85839       	34.71635       	31.235474      	28.828226      	29.76736       	35.820175      	78.88521       	117.18781      	117.170395     	119.672806     	116.22857      	109.684616     	120.1093       	122.66687      	117.03094      	119.583786     	124.56873      	119.631424     	121.161865     	130.70378      	118.81551      	126.92005      	130.46039      	128.81519      	138.96811      	130.54503      	134.43309      	144.93898      	141.53067      	164.74962      	157.91098      	104.44156      	74.594635      	72.45231       	54.479885      	47.555344      	67.99354       	72.446884      	48.250717      	47.950535      	55.751873      	60.531765      	
116.996216     	117.727936     	114.38204      	124.381035     	124.843475     	116.550575     	128.91142      	122.659256     	121.41654      	127.41713      	131.20412      	127.32263      	127.98565      	132.44296      	134.18141      	133.17693      	143.81407      	136.89867      	141.38382      	147.03554      	149.64107      	155.76349      	158.50203      	172.49446      	159.26775      	132.68958      	105.70623      	82.81705       	74.18712       	72.47925       	69.19457       	78.019714      	74.53113       	75.65855       	73.95289       	77.9392        	73.80256       	77.85891       	74.96518       	73.43303       	76.77099       	74.47302       	67.465675      	74.190674      	66.59455       	63.64407       	70.935104      	66.749214      	57.55393       	66.16454       	67.97521       	57.230495      	59.840004      	62.854877      	51.68046       	58.277378      	50.499695      	42.052334      	45.892372      	44.5311        	33.001247      	32.89305       	32.03613       	35.100716      	68.33723       	109.79013      	120.36634      	114.50693      	116.51208      	118.84875      	116.44305      	119.99442      	120.11784      	117.843346     	120.92467      	124.70142      	122.524605     	124.71396      	130.19426      	130.24889      	131.4533       	140.91855      	141.77122      	138.73512      	154.7338       	150.8144       	154.98106      	172.2304       	140.91257      	96.289604      	88.7674        	77.63496       	58.69026       	62.330463      	75.08097       	60.609005      	53.166775      	64.11318       	67.85468       	64.80407       	
112.73299      	119.36653      	114.31182      	122.043976     	124.633415     	115.587524     	125.26247      	125.86787      	124.66784      	126.660416     	133.10175      	130.1582       	130.17372      	134.98624      	132.2138       	136.35126      	142.32327      	135.90437      	144.85262      	151.46896      	157.02377      	152.85919      	162.6948       	171.32594      	174.98978      	134.16624      	111.11006      	96.83158       	79.43913       	73.23832       	76.30002       	80.08853       	74.06604       	74.776794      	76.26644       	76.61789       	75.548744      	71.89351       	73.30778       	79.13331       	69.84816       	73.287544      	69.42361       	63.029297      	70.36961       	74.35355       	59.849045      	64.31299       	64.77898       	56.747105      	54.781376      	62.59034       	48.079514      	50.88637       	56.174072      	42.533928      	39.73104       	47.734016      	40.293785      	32.66982       	32.35958       	29.144733      	29.088594      	40.80011       	62.393467      	98.98052       	113.95549      	110.45374      	118.01856      	118.256996     	110.79973      	120.4747       	121.8097       	113.49299      	123.80881      	128.77733      	119.62964      	128.55899      	130.7551       	127.29906      	139.34647      	139.60931      	130.01157      	142.61243      	151.67728      	149.8213       	156.09634      	165.59364      	154.37555      	119.8525       	94.969185      	73.3955        	64.85995       	57.321148      	63.388535      	71.55502       	78.30586       	70.75673       	56.7417        	53.11338       	
130.20177      	117.19401      	122.00542      	123.40129      	120.85686      	123.58341      	122.07054      	122.55315      	131.89084      	131.57349      	120.28682      	131.95287      	135.61185      	128.49442      	133.82323      	141.14307      	134.61646      	142.9082       	146.28249      	143.47206      	150.90155      	156.30719      	155.18182      	164.22174      	181.5468       	134.062        	105.247154     	98.13797       	85.76645       	65.4804        	73.42292       	81.637566      	65.420654      	76.89621       	81.88016       	69.27282       	71.20265       	78.44984       	69.7683        	69.08511       	79.44408       	67.6227        	70.785286      	76.84349       	64.11168       	70.407005      	74.09189       	69.13902       	63.429653      	65.15014       	67.35821       	57.81384       	64.35357       	60.961662      	53.270382      	54.771816      	70.3191        	51.06216       	30.4592        	40.74511       	33.036915      	24.929384      	35.387802      	32.013878      	54.498997      	92.60284       	114.13408      	113.06092      	113.51834      	111.09351      	123.430016     	121.08256      	114.095406     	120.00586      	120.63007      	118.273766     	126.32413      	126.028206     	118.57917      	129.21024      	132.82613      	131.66232      	136.33548      	142.88206      	139.48865      	151.45363      	152.61133      	152.84865      	169.79071      	120.65746      	96.330574      	91.08424       	71.52737       	60.866074      	60.028324      	57.934128      	57.540825      	58.933834      	63.042038      	63.677048      	
52.479553      	92.05021       	111.70717      	122.75898      	120.31088      	114.62589      	124.22331      	119.67292      	119.38632      	131.52324      	123.46419      	119.43806      	134.91074      	134.62685      	141.49234      	135.56808      	135.7119       	137.87073      	144.96727      	142.07452      	151.01056      	155.58986      	151.30713      	165.24217      	181.25171      	145.0926       	110.72845      	91.40488       	76.22213       	72.44699       	66.80195       	65.89204       	71.94056       	71.23738       	81.16468       	73.513016      	63.778236      	64.94802       	79.89716       	72.03931       	70.03279       	76.94356       	68.9216        	70.59519       	75.01205       	64.00135       	62.113106      	75.00333       	66.7445        	59.93128       	69.03597       	61.15046       	57.899677      	68.200325      	63.50818       	66.63847       	64.28392       	46.633377      	29.780945      	41.56793       	39.936337      	27.779741      	33.267673      	40.37233       	49.300102      	92.70991       	112.291374     	106.11649      	124.14247      	113.73678      	110.280914     	125.26899      	120.12038      	109.54382      	122.7231       	122.003914     	111.35522      	130.25739      	124.895355     	118.216934     	133.50226      	130.20213      	124.8261       	132.16199      	132.72688      	126.42929      	141.04607      	145.12779      	151.352        	136.57372      	106.708565     	86.72613       	71.42825       	51.047478      	52.08258       	63.03996       	62.828327      	54.714035      	50.143093      	49.577312      	
22.684547      	57.371437      	96.85808       	110.08898      	119.37134      	118.94388      	123.04         	125.46821      	118.70029      	125.87991      	129.22227      	126.88098      	130.79562      	130.2086       	135.11375      	134.37651      	141.7212       	138.43762      	136.74033      	146.26701      	151.87991      	147.05301      	154.47226      	166.88297      	169.35948      	167.74675      	128.75992      	101.82663      	83.55293       	79.72203       	71.44093       	69.01326       	81.950226      	70.51485       	76.90319       	83.04948       	68.279205      	71.35147       	76.991714      	77.31398       	67.87822       	71.67284       	70.87851       	63.586143      	69.72394       	71.96062       	64.69178       	65.298         	63.591133      	68.149254      	64.63979       	60.92372       	60.486668      	63.503212      	56.91168       	48.897488      	51.46245       	47.764946      	42.448322      	39.97719       	36.639088      	34.493748      	24.919909      	27.095793      	51.254658      	83.81425       	103.548515     	119.20236      	117.0027       	111.33836      	121.71159      	119.75401      	116.978874     	122.00877      	122.40568      	121.93331      	131.42445      	124.27494      	121.72688      	135.80699      	128.63649      	124.18597      	135.6578       	139.0563       	133.44893      	141.66405      	145.1424       	140.1414       	158.81543      	154.23795      	101.38041      	83.54309       	71.72648       	56.04877       	60.691833      	65.25618       	70.31148       	66.11742       	59.104965      	62.461014      	
27.772968      	33.031258      	90.4785        	111.99787      	109.3305       	122.18045      	125.45365      	117.331985     	121.4055       	129.42906      	115.76078      	124.86625      	132.16006      	127.89842      	132.16464      	134.26118      	130.34097      	138.75954      	145.8297       	141.30688      	147.3379       	154.46991      	156.42218      	161.21169      	169.8908       	187.41208      	140.08345      	116.912445     	101.15679      	80.215576      	76.85036       	81.60963       	70.81163       	70.44245       	74.81939       	76.87806       	79.59749       	71.670074      	77.86241       	77.757996      	73.60673       	69.26238       	78.67162       	72.62021       	69.0338        	77.57806       	68.5566        	64.98423       	68.94248       	63.486877      	60.619465      	69.2885        	51.41793       	49.872013      	55.740437      	58.336746      	42.223824      	46.1809        	51.142235      	31.642456      	34.363014      	34.910072      	16.45534       	16.89103       	35.643703      	50.007587      	98.41369       	125.650276     	109.88598      	109.65641      	124.33106      	114.58345      	110.87841      	125.053955     	119.5327       	114.65948      	126.76859      	120.01015      	121.605804     	128.22447      	129.33487      	123.76317      	132.4119       	135.33475      	133.09966      	140.11353      	137.33546      	138.02751      	156.34035      	156.71832      	98.382324      	84.77325       	71.51814       	57.32098       	64.63725       	66.51673       	66.70379       	61.597145      	56.13154       	60.026608      	
44.17354       	47.04043       	90.20812       	114.38005      	113.61092      	128.41429      	112.15986      	122.53834      	131.77878      	116.276215     	131.86961      	135.73856      	116.24187      	126.606735     	138.6063       	129.13937      	126.79163      	143.62482      	133.31808      	138.1771       	153.27516      	141.77069      	147.77492      	161.17784      	149.19571      	180.88815      	172.99213      	116.43224      	99.4386        	95.98759       	76.09648       	75.70332       	78.72553       	66.571175      	80.24411       	84.650276      	61.904427      	74.35328       	85.10759       	68.42798       	68.03307       	84.90498       	63.121887      	65.03009       	82.60367       	65.39211       	63.36246       	75.28226       	65.04004       	64.39647       	70.339         	55.602737      	59.034115      	64.15937       	51.214413      	51.308617      	59.98791       	45.39437       	49.763485      	46.415367      	36.363136      	37.519203      	26.877577      	13.159658      	29.498436      	50.86303       	83.002754      	120.14946      	122.514496     	99.07915       	114.67757      	121.90062      	112.35864      	117.381714     	120.25223      	114.091835     	123.71086      	129.24684      	118.18371      	125.97742      	126.626274     	121.84085      	135.00906      	132.12305      	129.86244      	141.4811       	147.28822      	142.9458       	157.6255       	160.11334      	117.64046      	95.03861       	73.92862       	52.91921       	50.258804      	55.85471       	55.700687      	53.091393      	53.90485       	52.95557       	
30.268095      	33.292294      	76.1395        	114.97389      	117.430374     	121.42282      	122.697075     	117.88115      	120.1055       	128.32587      	126.02138      	120.47191      	127.37503      	133.88483      	138.88486      	134.18886      	139.41165      	131.57245      	135.40614      	140.9918       	145.96666      	148.03635      	147.61606      	147.83832      	164.30365      	173.09402      	169.43465      	131.83041      	96.04269       	83.54384       	85.55604       	72.25932       	72.48509       	84.58589       	73.325386      	76.90598       	86.34977       	72.677475      	69.25479       	75.5983        	82.37053       	65.79819       	70.82295       	75.93288       	66.18619       	66.77202       	79.21544       	61.590256      	64.75757       	74.50404       	62.553226      	57.63472       	69.5319        	55.838764      	57.151794      	71.26063       	50.863724      	45.03438       	56.908627      	38.41259       	44.294846      	45.505947      	18.762484      	22.406532      	38.066624      	37.097904      	75.999054      	122.19162      	108.84457      	117.08261      	130.96722      	105.52387      	113.1422       	129.38503      	113.57332      	111.872444     	129.7939       	117.178154     	117.29586      	127.01356      	119.56547      	117.200356     	134.84732      	129.35175      	132.9878       	145.42929      	132.25267      	137.79182      	156.23593      	161.53815      	120.99977      	99.81398       	76.473595      	58.307083      	61.585575      	57.848206      	46.306248      	50.755657      	57.175835      	60.20711       	
27.027956      	40.44846       	65.87378       	105.92587      	122.837204     	113.64522      	118.96638      	122.738945     	118.13714      	118.62214      	127.029434     	129.77011      	115.94352      	136.8668       	133.60855      	125.942696     	140.78188      	140.56297      	135.08336      	141.33195      	148.45583      	148.13486      	152.34666      	163.0718       	157.28232      	172.06554      	183.70883      	137.41452      	115.648575     	97.55733       	77.69471       	71.61508       	74.00524       	75.89998       	74.661934      	74.61063       	76.71142       	74.853035      	71.82775       	74.75844       	82.32101       	67.68828       	68.86488       	76.43463       	64.2769        	67.369         	71.357895      	67.411194      	61.111526      	70.80445       	63.396137      	57.57742       	68.78902       	57.116642      	53.140015      	69.353714      	49.25468       	44.822144      	54.434284      	43.651394      	39.367966      	38.471798      	31.91573       	23.407375      	34.84665       	45.88395       	73.71815       	111.66544      	108.68364      	118.375084     	123.62053      	104.61022      	114.05572      	122.54697      	110.65363      	117.182945     	122.48161      	112.80266      	118.320885     	129.31438      	118.77817      	121.84623      	129.63396      	122.80616      	132.03506      	139.4578       	128.72511      	135.58772      	146.90941      	144.46132      	140.80515      	109.46956      	73.63962       	63.819145      	65.91184       	54.862953      	49.527596      	53.502956      	57.077682      	55.0864        	
29.153847      	39.319126      	62.850502      	102.86864      	118.06999      	114.41654      	120.47489      	114.57088      	111.65042      	120.26436      	124.7707       	114.67537      	140.68558      	135.01447      	110.40315      	127.583244     	137.7337       	125.98939      	139.72289      	144.82066      	135.39098      	152.04591      	153.53426      	145.84207      	157.47264      	173.36076      	177.91222      	144.90785      	122.72014      	88.82329       	76.06822       	79.91148       	73.07061       	71.21971       	90.14488       	76.09643       	72.43148       	84.8122        	71.04603       	80.97013       	81.93982       	73.64517       	75.2402        	74.837845      	65.90932       	70.67662       	78.53857       	60.37181       	64.35112       	73.304665      	61.681602      	59.661087      	65.90571       	62.29435       	56.856236      	61.425518      	58.229366      	51.570396      	48.88601       	46.90845       	42.826923      	39.511578      	29.310852      	26.426144      	27.037617      	36.852554      	71.14109       	102.313614     	114.36418      	114.25672      	111.920525     	118.10591      	111.39987      	112.912224     	114.85287      	120.15878      	108.85517      	114.52776      	125.72689      	119.06368      	123.31331      	134.64215      	118.33639      	128.0226       	134.81493      	132.53691      	139.81406      	141.08698      	145.24261      	154.89087      	163.10968      	114.14515      	90.35609       	72.26244       	53.425137      	58.091057      	62.34798       	53.60237       	43.85981       	41.031063      	
28.288683      	41.310356      	41.6214        	85.194084      	121.80948      	117.18031      	111.23333      	122.57645      	122.312485     	115.81535      	128.18956      	125.206055     	114.15538      	136.01767      	130.84729      	116.13616      	138.65501      	139.68167      	132.43527      	141.57559      	146.85162      	141.33492      	150.90753      	154.49791      	163.74934      	171.59845      	180.54362      	150.6193       	125.06454      	100.705696     	73.29284       	68.67723       	78.76663       	83.889404      	81.880356      	73.98682       	75.83779       	84.047356      	76.00722       	78.40115       	80.7189        	71.80969       	73.202446      	67.63052       	63.497627      	68.28196       	63.241005      	60.94083       	71.32844       	71.019806      	62.30336       	60.064793      	64.34973       	61.82055       	57.336327      	58.679752      	52.77511       	49.320045      	51.039066      	49.059616      	37.92183       	42.200157      	38.82228       	18.914581      	32.151657      	36.2543        	46.70593       	100.06761      	122.997406     	104.94721      	115.82931      	120.58338      	108.42852      	118.32403      	120.323296     	111.585236     	121.59387      	120.50293      	116.641594     	125.24438      	125.49753      	115.26081      	125.37801      	133.39287      	132.01952      	130.43224      	139.46239      	137.83743      	147.43906      	150.18613      	157.9695       	111.23863      	88.12485       	69.02256       	62.69832       	48.70398       	44.814903      	47.752422      	52.335903      	59.121834      	
33.40369       	34.41452       	50.68089       	73.488174      	112.110825     	119.1739       	118.97811      	113.96437      	124.020615     	123.415        	119.05866      	128.76764      	124.0304       	123.50581      	126.357216     	137.73203      	137.14449      	136.19653      	135.30408      	136.24564      	143.01112      	150.9766       	153.77306      	147.65294      	160.64816      	162.71022      	171.39607      	163.4027       	113.815865     	89.91596       	83.70598       	71.77099       	72.18918       	75.13812       	75.033195      	68.9677        	82.648575      	71.70483       	66.57023       	75.728485      	76.77615       	70.19707       	74.266106      	76.049225      	68.228935      	76.561264      	70.608475      	59.394997      	56.795315      	67.73913       	64.37294       	63.781857      	58.586227      	58.150917      	61.987087      	57.751785      	52.61788       	56.4804        	48.069466      	44.803886      	47.7643        	44.578445      	30.298988      	28.041487      	26.10777       	25.353945      	47.205776      	86.467735      	104.89037      	115.16139      	117.273224     	114.742714     	113.15197      	114.69709      	112.78832      	111.878204     	117.3009       	113.06078      	119.12111      	120.06372      	117.40641      	129.68898      	120.74052      	119.74228      	133.55838      	127.29933      	127.43994      	135.04994      	128.15115      	129.95204      	162.46907      	112.94254      	81.448715      	88.37465       	73.01612       	62.82334       	61.422623      	69.28892       	70.97714       	74.263214      	
29.02947       	50.89484       	38.33866       	80.66478       	119.83675      	102.956436     	120.98933      	125.53372      	121.65259      	124.50146      	123.27635      	115.12208      	128.09612      	134.17685      	123.64652      	130.19662      	134.33899      	124.13526      	125.63933      	138.58656      	130.33159      	140.19612      	155.2634       	138.24147      	142.8334       	163.7673       	160.83148      	160.20074      	138.68834      	106.643196     	82.56231       	89.318474      	79.157036      	59.493557      	82.34059       	74.42047       	67.613815      	86.40091       	79.4239        	66.96969       	81.55504       	81.131996      	69.40808       	81.8107        	77.46555       	65.93275       	66.66804       	47.935574      	32.603844      	65.052605      	70.395485      	58.002083      	60.976597      	65.65433       	55.302246      	58.37875       	55.103996      	50.456036      	52.72976       	45.539024      	41.391663      	47.041477      	33.352055      	14.402273      	16.363459      	29.185665      	23.800606      	53.772392      	109.77161      	108.80722      	101.14607      	116.0523       	107.891815     	101.98531      	113.55058      	112.35027      	103.73845      	112.20833      	112.43411      	100.77265      	118.56133      	113.80549      	102.25526      	120.622025     	122.44063      	109.96831      	121.108086     	129.41742      	119.79085      	127.31194      	145.37881      	124.76876      	103.233734     	103.99541      	85.8792        	62.53749       	65.003876      	64.917336      	63.53379       	69.83857       	
41.642776      	33.08522       	46.011726      	69.163605      	102.22555      	117.90548      	120.16324      	114.35627      	118.72815      	118.78913      	115.100426     	117.680176     	125.25842      	124.470665     	140.60966      	119.71061      	118.56355      	141.29747      	135.02405      	133.36159      	147.60275      	142.70174      	135.53621      	154.14809      	155.58018      	146.73544      	173.98434      	186.84181      	134.26437      	113.8199       	95.84683       	77.96337       	85.89378       	77.63977       	64.193596      	81.342285      	88.725266      	63.82969       	79.47094       	87.54716       	61.08661       	75.69078       	83.16164       	69.73405       	77.59941       	81.06506       	45.17612       	49.651363      	52.715008      	50.44866       	64.26067       	70.46847       	49.58471       	61.426533      	62.209064      	39.533943      	53.67389       	56.105854      	34.1625        	44.94266       	45.166225      	26.055216      	36.65595       	21.361645      	1.0544566      	16.905575      	27.89432       	35.585747      	89.224045      	108.71703      	94.6154        	99.64831       	110.86663      	92.065674      	105.845474     	106.52368      	93.40721       	103.831085     	107.96221      	91.085075      	105.99486      	107.88048      	95.43384       	112.16064      	114.12001      	107.11922      	123.859375     	124.343254     	110.3625       	127.58294      	139.1731       	124.23097      	127.406006     	120.861435     	79.203125      	69.68688       	81.44831       	92.09378       	92.77063       	93.09228       	
33.091095      	38.40198       	31.24656       	59.47044       	98.233154      	112.49909      	124.19209      	120.39169      	109.48003      	119.95316      	125.58977      	120.861206     	126.736244     	130.49358      	117.886826     	128.50406      	131.36174      	118.644455     	133.83058      	140.87096      	129.53516      	137.05394      	145.93091      	138.62045      	147.28476      	155.85095      	151.67838      	181.41042      	153.24266      	104.58698      	94.80775       	72.4201        	83.251175      	84.40063       	75.79326       	65.007         	73.04021       	75.367874      	67.99108       	67.16313       	77.50221       	70.36638       	71.58852       	70.23032       	72.47244       	67.410904      	60.41175       	65.7383        	59.734337      	55.966957      	61.92431       	57.797894      	55.291744      	57.053707      	51.398544      	49.07994       	51.6069        	45.450397      	40.10338       	46.643414      	33.35165       	31.293692      	37.147465      	29.295889      	22.975912      	16.94383       	22.12273       	45.349712      	74.92648       	95.01397       	101.793175     	96.07052       	88.42322       	96.052925      	103.93986      	87.43745       	89.993774      	102.53602      	94.96825       	90.65791       	106.36026      	94.3945        	93.97659       	111.04987      	105.63193      	93.02009       	101.14704      	102.90337      	104.34854      	118.38925      	111.477875     	109.09486      	133.01804      	120.38885      	85.251755      	83.30324       	95.21324       	100.98336      	103.92436      	110.986206     	
35.009476      	35.846848      	36.701187      	34.97378       	85.11976       	115.97452      	117.416214     	124.60387      	113.56229      	116.69704      	126.85657      	120.02287      	117.51354      	129.16515      	122.55016      	123.1175       	137.16656      	130.05411      	127.899345     	140.35196      	139.87689      	139.67628      	143.20995      	146.65321      	148.69858      	153.27284      	157.75081      	167.33005      	171.1049       	123.438324     	100.47449      	89.45154       	76.961555      	71.16895       	78.986855      	74.88216       	70.719734      	76.68059       	76.98105       	70.73284       	79.43898       	73.9713        	65.48282       	68.83997       	64.71746       	64.17          	70.6196        	62.8506        	56.98578       	72.07669       	60.49371       	50.184166      	63.921097      	56.186874      	50.7931        	58.78558       	44.72836       	40.12441       	51.358994      	41.750065      	30.105011      	38.505844      	26.924477      	10.780631      	35.209785      	19.256887      	4.888507       	38.888405      	77.18978       	86.52758       	102.64517      	103.79554      	89.29561       	97.07194       	105.18424      	87.743576      	100.57536      	109.10633      	88.68049       	97.62001       	104.56475      	87.17242       	101.28548      	106.7793       	87.692856      	99.59384       	109.27038      	93.02351       	101.0461       	108.90691      	97.92452       	105.761215     	113.77849      	105.1619       	110.070694     	110.669        	108.109215     	101.91786      	104.87013      	110.316895     	
33.994297      	35.84819       	21.360893      	40.045856      	58.15961       	90.42488       	126.76097      	130.47247      	110.032074     	123.630974     	135.31906      	114.70568      	122.373764     	134.96309      	118.84329      	124.77636      	140.48793      	123.1014       	133.84566      	145.17822      	133.8384       	139.26122      	151.7794       	141.77728      	147.37611      	168.97543      	157.938        	159.9361       	185.03456      	141.4203       	107.932724     	96.688324      	75.160034      	72.98094       	84.18858       	69.080734      	72.41182       	83.38548       	69.39179       	72.15419       	88.224106      	66.526535      	67.54532       	70.9901        	69.67681       	72.348465      	71.78186       	61.043137      	72.25762       	67.64694       	57.608006      	64.42148       	64.68754       	51.765602      	60.56752       	58.899216      	45.457344      	45.08339       	52.91297       	37.83775       	33.387398      	38.86943       	25.827158      	23.541191      	30.556377      	9.647637       	10.163817      	30.075806      	53.730625      	85.63802       	104.53854      	97.33654       	85.06803       	102.5706       	95.1438        	89.978935      	100.87652      	100.50575      	92.33742       	100.48352      	98.741585      	95.65101       	102.61259      	105.9898       	94.58102       	103.68108      	104.77251      	99.30501       	104.92957      	105.02015      	100.85369      	103.04077      	117.1008       	106.58744      	106.792244     	114.2578       	110.5465       	101.91568      	101.80279      	104.09354      	
44.872314      	30.85687       	38.65838       	33.827972      	49.93673       	104.619026     	118.262985     	120.343124     	127.59752      	115.76823      	121.32647      	135.5762       	117.16066      	120.57015      	133.90239      	123.62944      	129.37836      	130.21568      	127.34093      	129.10558      	137.91614      	133.58661      	139.33481      	144.39017      	144.08344      	154.90582      	155.02687      	155.27728      	184.2867       	155.60825      	107.113525     	89.01237       	80.94219       	73.71288       	73.825745      	73.918465      	72.125824      	74.614426      	77.46671       	76.44011       	76.83838       	74.77848       	73.7847        	75.34183       	76.42879       	67.81023       	67.90246       	71.015816      	67.330574      	59.027275      	64.18001       	63.90237       	60.171005      	59.97796       	57.820923      	57.047794      	58.653545      	49.68925       	48.17012       	51.1084        	42.63468       	31.557768      	41.419147      	25.308163      	15.413978      	11.3501215     	13.916764      	28.00224       	34.532883      	82.65381       	104.98347      	95.834785      	98.298874      	108.98499      	95.287834      	91.9866        	110.526054     	100.47436      	90.01351       	107.39851      	99.43201       	89.93407       	110.86414      	104.0214       	89.531         	107.700226     	107.80356      	92.33282       	109.18263      	112.44465      	95.343735      	107.53387      	117.25611      	97.434235      	107.332146     	122.60137      	107.73133      	95.97717       	94.685844      	100.43639      	
46.173275      	45.32932       	28.347979      	42.45012       	53.872585      	85.969345      	115.44642      	112.19496      	116.13818      	121.79174      	118.64918      	123.736046     	126.288605     	119.65893      	128.54062      	131.60501      	121.00782      	128.33525      	139.06705      	130.22975      	136.18938      	145.69702      	135.30263      	148.62605      	157.96338      	140.2768       	156.38551      	172.78781      	171.36732      	142.49054      	129.3097       	99.28686       	77.30958       	77.99118       	69.16544       	65.402336      	81.274376      	72.952286      	66.71339       	80.58855       	70.91749       	66.02111       	79.17803       	69.302605      	62.859592      	81.66394       	63.97059       	56.208576      	76.961105      	62.293007      	52.122704      	69.40815       	59.716476      	44.134277      	61.932964      	54.694763      	42.112392      	51.105618      	43.202106      	37.24925       	40.75506       	27.53368       	31.345217      	39.094753      	26.230944      	18.914837      	25.836367      	17.651707      	26.40857       	71.8624        	98.86621       	97.45073       	101.82677      	95.290375      	92.75609       	103.34741      	93.010826      	95.28031       	109.310905     	94.52448       	91.854355      	96.71498       	100.37304      	102.352974     	95.440094      	98.663994      	101.93907      	96.94119       	101.540405     	110.38395      	88.500854      	96.20258       	111.03802      	103.56542      	98.31092       	111.17366      	107.24336      	99.02695       	97.66751       	101.75617      	
38.95452       	35.220688      	29.868511      	33.787605      	54.5608        	64.30827       	96.810745      	118.62074      	125.97664      	122.64782      	115.898224     	122.07018      	122.99262      	122.816246     	130.0952       	127.02348      	123.38156      	129.23999      	135.7289       	126.963715     	131.50563      	142.97536      	137.21417      	139.44534      	151.68617      	144.93724      	147.03735      	167.60287      	179.83803      	145.8107       	129.66002      	110.67131      	83.184166      	79.794586      	75.530045      	65.20518       	73.434456      	77.11447       	69.097046      	75.581955      	76.56179       	66.58519       	74.01203       	78.73933       	59.00609       	68.18111       	76.10408       	63.286846      	59.5634        	64.08232       	59.123497      	55.989445      	60.139893      	56.271652      	51.29177       	55.59896       	47.107803      	43.37439       	41.63113       	36.313766      	31.048655      	37.92425       	42.871983      	28.784405      	42.094032      	54.17263       	21.531681      	26.361721      	38.304016      	59.37087       	87.648834      	105.7069       	99.08611       	96.23888       	105.06468      	94.67379       	98.85623       	109.72983      	97.52215       	92.480995      	110.961494     	102.567825     	94.50357       	108.65853      	107.90618      	98.10554       	111.27858      	115.55065      	118.262856     	106.50481      	95.52953       	85.76791       	103.93238      	108.65614      	104.41827      	112.6149       	115.19374      	109.11253      	104.944016     	102.232956     	
32.542927      	35.708744      	24.12249       	30.647831      	34.376987      	45.57905       	97.62089       	116.946205     	109.734        	115.43117      	118.79339      	116.07828      	118.591324     	120.45674      	118.15783      	120.29021      	123.323074     	126.10975      	123.748535     	128.69093      	130.66722      	128.44894      	138.44081      	136.73985      	133.69977      	149.2335       	149.45953      	141.0031       	155.90022      	165.29608      	123.84331      	106.46024      	78.03472       	64.370186      	65.703804      	66.79359       	64.698906      	69.36203       	61.02076       	62.921684      	73.86113       	58.116943      	56.560875      	67.89395       	61.785477      	57.515236      	59.863533      	54.12553       	53.7811        	57.04516       	49.228836      	48.706135      	54.071712      	45.46271       	47.326736      	53.670914      	47.381653      	46.415646      	49.326332      	43.367527      	43.24221       	48.57965       	44.201485      	49.756416      	47.07996       	50.486843      	51.98629       	58.797337      	67.6493        	66.13497       	98.99791       	100.13831      	90.890205      	99.29345       	105.93998      	90.04994       	97.76716       	110.07129      	93.92115       	89.27448       	106.77086      	92.48873       	92.57069       	108.12916      	96.370125      	93.033554      	106.281685     	103.90552      	95.54251       	108.13456      	101.850174     	94.09272       	113.9461       	107.673836     	92.093796      	109.13093      	116.08129      	108.94934      	99.152916      	93.337944      	
37.09048       	48.94197       	34.493862      	29.614462      	34.39202       	54.570217      	91.847336      	109.80315      	119.09337      	122.23583      	116.92242      	124.3011       	123.47397      	118.533295     	125.401375     	127.04925      	126.401764     	124.29069      	126.58013      	128.64551      	132.38597      	133.73392      	135.67752      	139.78802      	137.30214      	145.67963      	148.6343       	150.25726      	157.31236      	172.87386      	129.41563      	100.79096      	75.712105      	75.939224      	67.42396       	60.763107      	66.81575       	60.138344      	58.273064      	63.705757      	59.056076      	63.199158      	58.52941       	55.305008      	53.727474      	54.811466      	51.01014       	49.53247       	55.681534      	47.402473      	45.248352      	52.604927      	36.804104      	39.903923      	43.268433      	40.26021       	40.282585      	56.17403       	37.97267       	41.637417      	65.0039        	60.89209       	46.63251       	59.69966       	70.95215       	58.226074      	81.03437       	88.5183        	94.37552       	103.97369      	110.50136      	95.58383       	102.14312      	106.61508      	91.04053       	105.43637      	102.30966      	86.765205      	98.59101       	106.71041      	90.202515      	96.74635       	103.536835     	94.17179       	94.21587       	105.16997      	96.75345       	99.22107       	103.88085      	100.21484      	107.20544      	103.643814     	95.4876        	107.1367       	111.543045     	112.01728      	107.11595      	100.69507      	100.71253      	102.42194      	
45.264263      	41.220074      	39.52677       	27.11715       	37.568863      	58.71293       	77.47049       	108.08456      	120.30603      	109.78638      	115.67201      	119.35572      	114.801216     	117.66501      	123.80561      	118.71563      	119.551025     	128.40968      	120.47518      	118.60841      	136.50331      	131.68967      	125.809616     	138.2195       	135.28137      	136.5696       	144.8899       	145.84917      	144.48796      	167.07774      	139.52704      	105.718765     	88.87471       	64.600746      	53.078407      	59.023865      	61.118675      	58.268185      	53.9363        	58.65124       	52.032955      	51.685143      	56.111507      	46.892273      	40.301334      	41.91729       	49.32684       	47.554203      	40.700584      	43.9092        	43.12856       	50.98379       	42.91694       	48.497253      	46.942772      	41.893063      	50.961025      	53.509007      	54.61583       	51.936672      	58.14899       	60.10923       	94.09891       	104.15762      	95.25689       	97.16822       	105.30809      	96.74433       	100.165695     	102.142426     	94.05273       	101.00404      	105.94005      	93.096016      	97.926186      	108.78133      	92.20668       	96.405         	100.84865      	92.3753        	99.83045       	102.95194      	94.94416       	95.06847       	99.04438       	92.470505      	96.70687       	98.1458        	91.138756      	94.59233       	108.35643      	101.53175      	95.1233        	106.907234     	102.5431       	97.09407       	101.33524      	106.79525      	110.100845     	104.25317      	
43.342464      	46.55034       	35.600937      	18.88777       	34.737137      	39.553177      	62.191425      	103.14571      	117.99268      	111.13192      	114.68769      	116.199234     	109.717026     	121.53036      	118.919556     	109.629425     	118.66247      	121.404625     	118.04909      	124.12658      	126.75188      	123.628265     	129.47246      	133.71559      	132.25272      	131.82697      	135.60716      	136.93002      	144.85532      	158.58328      	139.32332      	105.025055     	81.95349       	67.26049       	53.428566      	57.32416       	55.766304      	47.123108      	58.208694      	56.081852      	40.51379       	45.005642      	40.968147      	40.711525      	44.684834      	34.96911       	39.416496      	48.008602      	39.84924       	53.91265       	56.473694      	46.025017      	46.810528      	58.554623      	52.954647      	52.194557      	70.88054       	69.07974       	81.80804       	94.415695      	97.719         	94.822014      	105.0297       	93.674736      	89.74049       	102.55826      	93.51725       	88.5931        	104.142166     	90.861         	87.58305       	103.09497      	96.38355       	90.71562       	100.900986     	99.31281       	89.49132       	104.943634     	96.95056       	93.22856       	101.90638      	95.135284      	94.92948       	99.81943       	92.393715      	88.25436       	99.46761       	99.88785       	93.64644       	98.09832       	99.03913       	96.67514       	99.23288       	106.08357      	97.42221       	102.18294      	108.182076     	106.85327      	99.74828       	92.34482       	
43.335476      	28.794222      	30.08966       	32.884037      	19.803295      	30.696022      	60.212532      	94.43346       	109.13951      	117.262436     	109.06093      	111.51397      	119.33208      	110.4591       	113.10268      	121.995346     	110.57767      	115.65328      	127.30364      	112.82734      	116.56792      	130.49525      	121.62779      	124.401596     	130.7995       	130.06822      	132.30302      	139.29051      	143.90224      	155.781        	144.85753      	100.800644     	84.85425       	65.067345      	43.435116      	39.061764      	40.163303      	40.064         	36.344868      	35.125633      	45.416256      	53.789932      	38.651585      	49.91634       	48.368286      	39.64201       	41.36255       	48.845566      	50.397545      	55.027775      	62.989155      	70.126236      	69.20814       	75.15389       	84.16047       	96.36769       	101.11154      	101.09722      	107.82576      	99.911995      	95.86516       	100.53482      	93.8023        	96.45784       	101.50622      	90.91104       	93.113045      	97.50026       	98.52262       	93.942215      	98.07958       	101.78332      	85.55497       	98.717705      	100.8837       	91.83334       	90.98873       	97.40533       	94.87325       	86.510025      	96.49029       	92.60269       	93.037155      	93.39779       	91.28897       	89.80743       	94.16768       	96.05177       	87.34001       	93.63907       	95.84315       	88.473595      	97.9519        	102.15709      	94.483025      	94.00792       	104.96019      	107.28602      	103.585        	97.03804       	
39.680317      	29.62523       	25.238739      	27.174154      	22.332909      	27.565634      	54.610897      	85.10442       	108.73614      	107.24047      	103.3844       	105.505005     	104.49353      	103.94292      	105.046196     	115.02989      	103.52908      	106.55379      	115.158485     	113.228775     	111.959236     	111.78081      	114.416336     	116.5043       	116.21115      	121.708786     	125.112625     	122.49171      	125.81881      	133.5615       	147.20538      	102.518684     	67.5997        	58.567024      	42.314285      	39.2952        	44.419743      	33.577705      	33.96175       	38.823128      	45.9354        	47.143013      	40.49787       	44.148235      	51.694744      	61.031166      	54.19368       	58.837925      	72.17071       	87.46158       	98.2789        	101.445526     	94.87143       	93.5638        	99.33907       	97.55155       	95.67553       	94.572784      	93.953255      	92.3836        	93.3347        	89.908005      	91.56107       	91.06795       	85.42465       	95.18348       	94.719475      	84.35719       	87.59705       	98.09469       	90.63278       	92.96251       	94.307816      	93.36549       	92.73702       	93.019196      	88.88826       	96.34074       	96.622475      	85.4917        	94.92054       	101.71038      	83.907394      	90.798546      	93.0772        	94.37391       	99.72183       	86.480034      	91.59876       	102.10652      	88.36042       	97.61742       	103.41729      	91.10362       	97.716415      	105.11128      	102.28675      	97.159836      	93.846855      	90.57934       	
36.542576      	37.16833       	36.2334        	27.23961       	18.64073       	30.50231       	40.270058      	68.79247       	108.12753      	105.10469      	102.48183      	106.946655     	104.403915     	108.34892      	107.32405      	104.00761      	100.67939      	104.24733      	104.50272      	104.90718      	106.20768      	104.08842      	107.55494      	116.46868      	106.829926     	107.76689      	117.960434     	113.22278      	121.417984     	133.03694      	128.08247      	104.081        	83.68969       	73.81142       	64.46776       	56.459736      	38.216736      	32.073647      	44.55621       	51.19766       	47.27327       	62.242912      	58.728394      	57.58254       	63.413834      	84.118576      	98.98367       	101.06283      	103.19628      	101.23543      	96.5714        	95.65357       	98.11268       	97.661415      	95.33322       	96.61993       	97.70845       	97.01578       	101.176476     	96.16789       	90.10971       	103.55733      	101.36095      	88.066         	94.91146       	101.215004     	91.39413       	91.86107       	96.70668       	97.35664       	98.34061       	89.84333       	90.24411       	94.29288       	91.20386       	91.420525      	96.273834      	101.645836     	86.70063       	90.149345      	103.95277      	88.969284      	89.71277       	102.88388      	87.18267       	86.26923       	99.33727       	87.77421       	89.42088       	98.71956       	88.313034      	87.26617       	97.73486       	91.11818       	86.274666      	98.90878       	99.39156       	90.12558       	83.52885       	84.21333       	
34.41053       	38.822025      	25.608242      	18.046215      	20.70817       	14.328902      	23.560106      	55.717476      	90.26645       	95.65698       	97.549675      	89.08786       	96.40992       	97.25269       	91.032036      	98.65345       	96.93689       	89.680214      	93.98357       	98.80546       	94.66888       	99.116486      	105.181526     	98.87805       	97.76883       	102.69381      	107.47799      	100.69975      	108.84793      	119.40734      	116.981926     	121.72358      	103.8376       	87.02844       	70.257515      	61.81747       	50.825073      	52.31689       	55.01171       	59.713196      	61.226665      	83.366005      	75.72645       	84.478035      	108.19581      	100.420746     	93.9438        	102.46349      	97.81853       	95.86552       	104.493515     	96.00334       	96.69685       	106.67655      	99.823616      	96.039154      	107.75644      	93.12525       	93.36137       	99.694244      	97.13769       	98.5858        	94.7058        	94.59192       	99.716606      	98.06424       	100.8763       	101.53466      	115.278        	109.93346      	88.07478       	77.080185      	81.52514       	90.97785       	91.269         	96.923225      	88.671585      	88.914566      	98.00094       	92.707         	87.283585      	101.122154     	86.42416       	85.64124       	95.2743        	93.88725       	93.35634       	94.306076      	94.55555       	94.57793       	93.79355       	98.08178       	88.13687       	92.4189        	92.51278       	96.370804      	100.40868      	100.18281      	90.711494      	85.36076       	
39.44551       	27.551168      	36.667717      	25.16697       	16.748783      	24.826931      	25.066301      	40.483383      	86.54247       	97.1441        	88.25685       	96.53918       	99.679535      	88.67101       	93.93609       	97.55724       	91.96642       	94.24205       	96.930954      	88.132576      	92.6429        	100.16368      	95.22883       	94.379234      	98.97397       	97.299065      	96.652306      	101.99983      	97.885704      	100.32323      	107.471725     	103.09561      	117.571655     	99.31425       	74.97311       	75.14284       	83.31786       	90.58731       	83.53301       	98.7354        	97.78514       	100.3094       	106.24216      	100.0147       	96.51058       	99.63851       	99.41918       	99.308525      	100.181305     	98.67552       	94.63432       	99.86939       	104.37652      	90.41098       	96.16702       	101.66471      	95.69869       	98.59452       	102.58578      	90.34725       	97.86681       	104.8418       	98.24466       	97.89833       	102.95628      	92.45732       	88.435104      	99.169136      	86.59718       	92.07666       	99.93478       	92.89631       	97.31946       	95.2851        	93.66881       	97.80861       	99.94404       	98.33935       	94.8344        	96.85163       	96.05812       	92.85655       	96.63809       	91.37142       	94.42624       	95.10783       	95.38367       	89.63558       	99.47484       	100.41928      	92.13974       	102.23804      	99.310394      	87.86999       	98.140854      	102.772964     	103.57153      	99.31404       	92.51263       	89.248764      	
36.73647       	32.828392      	37.17067       	23.629253      	8.764481       	13.436993      	13.987886      	35.833744      	73.05298       	90.04554       	93.1838        	95.14844       	91.24232       	89.53667       	102.80965      	89.34764       	93.10807       	99.18523       	85.6367        	84.1775        	100.92326      	88.76087       	85.71083       	94.912285      	90.24609       	88.00817       	99.68796       	86.10739       	88.692955      	100.65116      	87.62991       	88.26938       	106.2612       	84.911415      	96.946945      	101.59826      	99.57508       	84.146065      	99.17697       	98.69466       	84.34795       	97.729095      	98.00572       	91.15486       	97.34738       	96.91908       	92.56619       	101.78661      	94.657715      	87.61469       	104.44992      	99.933174      	88.647125      	100.11862      	98.944626      	87.75848       	98.08751       	98.27738       	88.45418       	96.19518       	98.86683       	90.37637       	98.12774       	111.879654     	94.40581       	91.37614       	97.90345       	85.23153       	86.297615      	103.03655      	106.70183      	102.06312      	98.630974      	95.673874      	88.686676      	96.35034       	92.53642       	89.388115      	94.562004      	89.966805      	96.00829       	92.836494      	88.460365      	97.10303       	97.43442       	94.10145       	100.475006     	105.65393      	94.1013        	102.2661       	103.14052      	93.6611        	101.32928      	105.98101      	99.488716      	108.24121      	114.58294      	101.576904     	87.236626      	78.79756       	
31.188396      	41.495483      	28.56027       	20.798023      	24.5594        	18.824596      	16.386354      	28.95592       	54.66959       	87.48718       	93.32735       	100.9211       	87.64519       	92.27979       	94.71144       	93.04435       	98.68609       	94.60899       	87.357285      	96.269516      	98.704025      	87.94808       	94.133194      	99.253746      	89.72265       	93.37139       	102.434235     	88.14538       	94.379135      	98.89872       	97.66019       	98.983475      	94.91096       	98.53313       	96.31999       	95.50693       	93.55474       	92.84555       	98.39266       	92.69008       	97.714806      	102.60654      	96.19508       	93.266235      	96.1084        	101.363815     	97.320076      	93.968185      	99.61373       	96.30804       	93.30761       	98.90678       	95.07244       	90.37102       	96.826294      	100.6978       	92.98654       	92.99075       	102.118286     	88.46361       	96.29884       	99.85301       	88.28691       	93.66861       	102.12497      	93.08077       	85.977615      	99.159164      	88.68246       	87.63343       	104.70277      	94.078156      	86.14505       	104.925446     	95.849174      	86.98387       	100.07333      	92.84452       	89.748726      	103.40929      	92.00923       	85.66391       	103.56242      	92.28039       	83.69434       	105.82689      	96.084625      	84.49118       	97.24129       	98.29426       	90.42125       	95.116325      	96.65162       	91.22742       	96.32574       	103.713104     	96.32225       	91.44307       	88.728165      	89.49956       	
43.70524       	24.215801      	27.538124      	25.757284      	19.059643      	5.6749125      	14.447412      	24.595646      	41.92827       	82.39589       	99.88895       	87.18477       	93.00256       	97.55008       	93.843254      	93.65458       	95.42503       	94.18257       	97.051674      	92.04373       	95.142586      	95.682785      	90.69439       	95.27499       	104.46059      	86.38281       	89.157265      	101.75573      	90.45239       	92.67874       	100.535034     	91.97342       	90.55474       	100.794876     	95.51805       	86.19345       	101.84216      	91.121445      	85.78944       	103.31125      	96.71928       	84.227905      	100.15611      	104.205894     	88.44385       	97.96717       	104.33078      	91.06977       	97.0266        	102.7549       	88.87415       	93.94628       	98.73721       	93.383675      	97.58264       	97.633865      	88.0717        	98.09277       	102.09327      	86.726845      	91.36429       	101.50029      	91.67174       	93.42718       	96.6287        	94.56651       	87.42227       	94.75573       	92.308876      	92.82157       	94.46227       	93.99169       	95.16631       	92.774376      	91.81405       	90.69679       	97.11281       	98.774994      	88.95854       	94.21709       	95.75363       	87.762566      	89.35894       	101.12627      	89.31137       	88.33515       	97.74861       	95.88976       	87.76843       	92.7433        	93.72869       	91.8072        	96.85877       	95.69367       	92.04449       	95.70861       	96.76519       	92.16242       	89.85613       	88.34509       	
34.24173       	30.003563      	33.189636      	19.235392      	14.792652      	24.514956      	11.512202      	18.428402      	48.26922       	70.39993       	96.23253       	99.76625       	94.47691       	96.28365       	94.87272       	88.4795        	96.48332       	94.772446      	90.78962       	93.813835      	92.59895       	91.55577       	98.00522       	92.00084       	88.41033       	98.88504       	92.85933       	91.309044      	103.35754      	87.5486        	85.341995      	99.04886       	97.80074       	86.140884      	96.42656       	98.904205      	84.33397       	97.22437       	96.742424      	85.91435       	92.923454      	99.7296        	92.86961       	89.832634      	96.51659       	86.64073       	93.44978       	99.3747        	85.964966      	93.2273        	100.10301      	93.52548       	95.38947       	94.96634       	94.06542       	94.34962       	94.67848       	96.1858        	96.14485       	94.543495      	93.66554       	99.94315       	90.01619       	88.97005       	96.616486      	89.39066       	99.466385      	93.28463       	87.805664      	93.43865       	88.48921       	90.95218       	97.52946       	94.37132       	87.52721       	97.47022       	96.38652       	84.70992       	99.59847       	97.65815       	87.874626      	97.80272       	94.6958        	88.08205       	95.726654      	95.753784      	86.19247       	95.44609       	90.14659       	84.92575       	95.18724       	95.923584      	85.79646       	96.18509       	97.7246        	90.06721       	91.11803       	96.674736      	99.46666       	97.00976       	
31.287724      	37.516605      	23.114876      	29.643574      	42.5848        	31.04078       	24.565369      	38.012264      	36.870983      	70.49148       	100.270355     	92.01115       	97.35071       	96.41507       	87.75658       	92.71455       	102.32512      	92.72917       	87.49386       	106.45201      	91.85346       	89.802505      	104.076225     	93.23829       	87.67481       	103.31621      	101.26257      	89.55971       	96.93912       	95.57386       	93.62114       	97.65285       	97.23399       	90.7826        	99.42995       	93.60408       	90.92073       	91.715546      	91.4362        	91.65425       	94.06682       	96.83009       	88.7329        	91.94272       	94.59604       	97.5595        	92.6483        	94.88909       	95.141556      	93.26922       	95.62267       	96.90889       	95.73786       	94.303635      	93.60636       	96.60625       	92.80478       	91.61362       	93.27731       	89.90719       	93.13194       	103.201324     	87.907036      	89.347374      	97.699066      	90.323746      	92.38997       	100.49393      	84.256584      	85.89711       	105.38753      	90.2325        	83.99056       	105.51569      	90.642044      	86.94028       	104.23862      	95.337296      	84.30192       	97.94552       	96.15069       	90.711044      	96.33595       	90.99796       	91.73044       	100.047745     	94.20314       	87.674576      	103.86795      	95.45262       	86.14583       	98.96608       	97.93839       	87.65871       	99.722404      	102.68565      	94.78968       	94.686806      	93.4831        	92.19655       	
41.76998       	41.685284      	53.436863      	49.74024       	47.14005       	45.448807      	41.893597      	45.178402      	65.171486      	77.74818       	93.183716      	96.41336       	95.35404       	92.56908       	99.63574       	90.66015       	89.312386      	95.61447       	99.55519       	85.20073       	91.54283       	101.59974      	87.70799       	92.1702        	98.85826       	90.4044        	92.70478       	103.04881      	93.13806       	86.61602       	100.02574      	90.31127       	92.47904       	99.17362       	94.11797       	88.44824       	96.26774       	93.87863       	90.5549        	96.54101       	96.96977       	93.39381       	96.96361       	101.7884       	91.03748       	93.70513       	97.95222       	98.16187       	93.829155      	91.99512       	96.814         	93.97583       	95.80386       	95.10866       	97.80694       	94.51524       	96.905624      	98.441635      	94.724014      	98.49155       	98.474106      	92.9489        	99.37996       	95.219894      	86.69583       	93.36365       	95.94734       	93.29987       	90.4247        	96.88355       	95.939926      	94.94816       	98.43568       	95.46033       	90.59525       	94.69779       	96.25876       	94.344574      	96.223526      	90.84642       	91.91691       	94.596596      	95.524445      	91.93864       	91.39314       	92.89495       	92.813095      	98.44453       	97.84798       	91.28728       	92.39918       	99.10641       	97.228745      	90.27848       	100.436905     	99.886185      	92.44191       	90.35649       	91.27686       	91.78929       	
54.891354      	46.207817      	58.35052       	57.753975      	58.64141       	61.69224       	57.49556       	63.35156       	74.37683       	98.07165       	97.23683       	92.52872       	86.00001       	96.17366       	94.502304      	88.12756       	92.773766      	96.18986       	89.69493       	91.0006        	97.47472       	91.515625      	90.52412       	96.60573       	92.44315       	93.95738       	95.814156      	87.87564       	97.01496       	99.28022       	86.485634      	94.52821       	103.82309      	89.03748       	90.654434      	104.145546     	86.43938       	88.92831       	99.81469       	87.2655        	93.91247       	96.76428       	87.49266       	94.846466      	97.56963       	83.642715      	87.54027       	96.62955       	95.27318       	84.85806       	96.31562       	93.27857       	87.65626       	97.44813       	97.49361       	86.73589       	96.12845       	96.5603        	91.56395       	93.2587        	94.111465      	88.25961       	97.46309       	92.71391       	92.505974      	95.83592       	88.89868       	90.019775      	98.08061       	92.516235      	85.67903       	95.1566        	90.25575       	95.21077       	99.52028       	89.12382       	90.94821       	98.793045      	91.493034      	92.76823       	98.19872       	88.75878       	96.85275       	98.57746       	89.19287       	92.31458       	100.642784     	96.40384       	90.92098       	95.64315       	95.284256      	94.3094        	96.798546      	100.05364      	98.45216       	95.787834      	95.32865       	96.48056       	98.75281       	97.49867       	
62.728367      	63.43386       	71.20011       	80.11425       	95.00826       	99.336395      	102.31367      	103.42304      	102.170074     	99.2485        	98.18641       	97.94443       	98.998375      	99.341835      	91.27778       	98.27087       	102.214806     	89.406235      	101.61546      	95.3012        	88.77497       	94.585434      	98.301315      	94.48447       	90.67101       	99.06182       	91.772896      	93.82909       	99.00382       	95.800896      	91.75823       	97.04464       	98.78435       	96.03597       	95.91104       	94.02148       	98.72254       	92.87692       	93.804596      	96.12084       	95.80943       	94.992714      	102.70753      	96.07635       	95.45358       	98.047455      	92.87008       	95.53577       	101.018715     	91.204056      	91.65937       	98.99505       	94.820625      	92.29432       	95.56672       	95.97799       	91.586464      	90.89718       	95.83757       	93.37425       	88.77014       	92.30655       	96.430084      	87.24919       	87.48328       	96.27587       	87.89151       	91.29583       	93.53545       	84.452896      	84.20134       	98.434         	88.60336       	89.32833       	101.64711      	88.32698       	88.99605       	101.79365      	92.38799       	83.26036       	100.88457      	95.87696       	82.96846       	92.28266       	92.69613       	85.71697       	94.49468       	92.17321       	85.26477       	92.32071       	89.43731       	85.667366      	96.93277       	95.92643       	83.69995       	90.55275       	100.115974     	99.803375      	94.258675      	88.672104      	
83.38818       	91.96766       	98.124115      	89.133316      	85.00565       	100.603134     	98.82912       	86.10531       	97.60212       	101.261955     	92.285164      	94.89147       	98.1007        	96.84705       	94.99647       	99.74578       	96.091324      	98.89021       	96.21764       	92.954575      	100.26473      	90.89164       	85.0819        	95.43201       	95.291176      	97.62785       	91.665985      	89.95723       	99.53918       	92.75334       	93.62245       	96.16814       	93.60689       	93.447624      	95.368576      	96.798164      	94.79033       	89.29122       	94.04112       	93.64223       	90.58308       	95.41354       	94.71863       	90.84867       	97.48165       	95.718346      	88.07337       	92.21707       	94.586685      	88.476494      	91.62611       	100.024284     	88.845474      	90.55781       	100.87104      	93.06025       	88.037605      	91.53344       	93.24263       	87.619644      	93.214195      	95.30743       	90.48837       	94.08244       	92.5351        	95.69511       	93.90163       	85.69532       	91.848434      	93.12839       	90.19411       	90.76502       	93.43916       	94.11365       	94.86468       	94.71158       	92.8433        	94.45341       	93.00627       	90.70287       	99.05591       	93.31164       	88.76674       	89.78337       	91.109825      	97.943596      	92.1663        	87.872         	94.44359       	90.77787       	88.286575      	97.56855       	87.55863       	88.63018       	96.52675       	99.467125      	96.10441       	87.93116       	84.402145      	84.517365      	
100.02775      	90.9637        	99.028656      	101.78156      	88.74669       	98.96115       	101.101845     	94.27281       	96.659615      	101.218796     	93.77138       	100.370476     	103.25634      	90.8305        	92.61409       	100.73998      	94.19736       	94.275314      	97.349106      	92.39558       	95.345535      	96.94503       	93.337654      	95.828384      	95.70009       	90.76331       	99.93891       	96.10714       	86.16716       	95.300934      	104.10257      	89.124115      	93.14067       	103.26183      	84.79865       	96.24981       	103.096436     	84.980194      	98.79761       	97.39161       	83.81201       	98.25089       	98.40606       	82.54239       	90.80318       	99.15197       	92.55807       	92.57747       	100.67702      	89.81291       	91.742584      	98.334526      	88.232376      	90.1824        	94.13935       	86.8411        	94.54679       	95.915146      	80.75423       	91.59884       	95.40778       	86.874664      	90.43495       	93.99792       	87.908936      	91.55248       	95.83333       	80.438774      	89.806015      	97.09835       	88.00994       	87.09636       	94.18709       	92.9382        	91.60151       	95.284225      	92.43047       	92.245895      	96.918076      	91.30141       	97.004135      	92.5622        	86.431046      	87.68262       	92.75567       	96.49808       	89.84313       	92.47286       	96.007256      	89.69799       	95.96147       	95.43331       	88.66052       	95.95699       	100.506516     	97.94463       	98.72967       	100.54472      	95.79693       	98.482025      	
97.014725      	103.48453      	99.56776       	93.169525      	100.58299      	100.48064      	95.05107       	97.31938       	98.42329       	96.70928       	102.19868      	96.75426       	93.999756      	103.224594     	97.54048       	91.756546      	106.93471      	100.68127      	88.00758       	102.69113      	94.739975      	89.48259       	99.350296      	90.715576      	98.59163       	106.397705     	81.995575      	92.88094       	104.75882      	91.57819       	88.05004       	104.08284      	89.849785      	87.81932       	105.3205       	89.70605       	88.67179       	98.892456      	89.534164      	88.02471       	95.78166       	85.04349       	94.18145       	114.51922      	91.3557        	89.13716       	105.16493      	88.61616       	94.49418       	99.85319       	89.35246       	94.68202       	98.824585      	89.33522       	96.08013       	99.895454      	87.74935       	100.67281      	101.82712      	81.9536        	94.59056       	99.462265      	88.778854      	94.78259       	99.24972       	86.952095      	96.905396      	101.615204     	90.314255      	94.8324        	92.87078       	89.45763       	102.239876     	99.57832       	85.113976      	101.92702      	104.55514      	83.74398       	96.40413       	101.687004     	83.20848       	98.45055       	103.05797      	86.77128       	97.365265      	97.801216      	90.91178       	99.25156       	92.27546       	88.38238       	98.9775        	99.984634      	86.84056       	96.49677       	104.56501      	93.23523       	90.953285      	102.67639      	112.63768      	108.006226     	
91.615265      	97.445755      	92.93656       	101.789795     	99.44215       	89.12167       	98.642334      	97.50591       	88.879135      	103.00419      	99.24829       	88.82927       	103.88426      	97.746956      	90.01911       	102.80643      	96.626816      	84.172325      	99.01041       	105.95321      	87.11384       	97.81734       	94.317955      	85.05901       	109.59537      	103.40259      	78.01094       	96.06595       	105.74837      	88.874985      	103.13598      	107.96915      	87.448166      	102.90224      	106.46725      	86.615654      	102.36621      	107.33581      	91.316895      	98.22266       	105.32034      	102.002365     	105.05603      	90.61999       	72.71179       	92.62142       	103.94455      	89.80911       	93.67677       	103.21221      	89.82425       	93.88021       	103.54976      	90.005936      	95.16594       	100.5382       	93.15978       	97.66846       	94.4523        	89.64014       	90.68507       	96.440605      	94.24816       	89.8158        	98.50524       	93.62302       	91.23119       	98.1653        	91.65089       	91.43239       	96.71615       	95.24919       	86.47379       	95.26074       	96.05294       	88.81739       	98.14148       	101.76928      	89.913284      	96.01906       	100.95421      	96.05036       	96.734         	93.7163        	88.9375        	103.476974     	89.433105      	94.2096        	101.731476     	92.41573       	89.080864      	102.80698      	103.45232      	89.53676       	101.70085      	107.16358      	98.436         	92.11646       	80.94046       	59.242058      	
96.05489       	99.1562        	95.893295      	88.783806      	95.42895       	98.349335      	90.79518       	93.41225       	97.98891       	91.947525      	99.535934      	100.80449      	90.91147       	97.438835      	102.415535     	92.01271       	93.77176       	101.897        	91.241905      	95.89494       	103.17859      	86.87474       	93.66902       	97.511215      	95.30526       	98.99395       	96.79354       	92.90019       	94.23453       	96.934685      	93.25253       	94.191315      	96.13116       	94.20972       	96.3647        	99.10376       	88.235405      	99.54062       	95.17395       	89.70369       	93.36414       	94.895134      	90.08986       	78.91301       	88.561455      	93.75667       	98.86206       	91.219765      	95.00976       	96.22152       	87.90312       	101.38801      	97.98412       	86.07331       	96.17247       	100.6596       	91.29284       	92.60214       	99.59659       	91.945595      	93.51262       	101.40784      	91.69088       	93.701         	89.28405       	97.04875       	97.43274       	92.59635       	89.58158       	91.239555      	94.301994      	91.74616       	90.35344       	92.82399       	94.38905       	99.73121       	96.71457       	91.94302       	97.309204      	93.10857       	92.12792       	97.9096        	97.46435       	89.51022       	101.042465     	104.801834     	85.175285      	102.31367      	102.85632      	91.01989       	106.27735      	101.134        	96.72154       	106.30372      	110.03499      	94.203255      	103.4124       	109.51769      	88.13492       	54.57278       	
91.58541       	83.38366       	92.738106      	102.8852       	85.332535      	89.43134       	104.25724      	89.749016      	84.86157       	106.75985      	87.66474       	86.160904      	107.179245     	92.108246      	78.89259       	102.331314     	94.42659       	83.45268       	101.25895      	96.22525       	83.780426      	102.65209      	93.41147       	82.58688       	103.0066       	96.15313       	83.91301       	101.87367      	90.13374       	81.57165       	99.8357        	98.2894        	82.43721       	96.093575      	96.5226        	90.65209       	98.782265      	88.935455      	91.35523       	98.8801        	90.31605       	85.194374      	101.595566     	95.36412       	88.91373       	98.46484       	92.91893       	85.82999       	99.98658       	92.470406      	92.87097       	99.248344      	91.32658       	94.96374       	102.686485     	83.68621       	89.941086      	100.48811      	93.94897       	96.21691       	99.27453       	92.3497        	94.42777       	99.479324      	95.415825      	93.80693       	95.65439       	93.39656       	104.91915      	90.776215      	85.53284       	101.09778      	92.389595      	87.39676       	104.07942      	97.05157       	89.799545      	107.40234      	96.23877       	87.37572       	103.13139      	95.31971       	91.9595        	101.93181      	91.626015      	90.3389        	108.49915      	98.242874      	91.51657       	108.64576      	98.491325      	93.42412       	106.578445     	98.31014       	98.23548       	102.511795     	109.633        	93.880775      	58.067024      	34.40473       	
106.8045       	90.12047       	100.96416      	98.591385      	93.895744      	93.34826       	91.39002       	90.19341       	98.52391       	95.81103       	89.49194       	99.686676      	98.2952        	97.328705      	100.22853      	98.13148       	95.94302       	100.902985     	97.09298       	92.20166       	101.48291      	95.63374       	93.649506      	106.65467      	92.446465      	93.33618       	108.45568      	92.02608       	88.352905      	110.3145       	100.33825      	88.8354        	105.058754     	98.01798       	91.78808       	107.05021      	96.59166       	85.847496      	104.29084      	94.86381       	83.51078       	105.68942      	92.01155       	88.70817       	102.66395      	89.01985       	93.64221       	101.01212      	91.7249        	91.6099        	101.909874     	88.64067       	92.32433       	105.13606      	85.70093       	83.77455       	100.764595     	97.37716       	84.04808       	96.462326      	102.87402      	83.625206      	98.99399       	100.99234      	82.22848       	99.15128       	103.16561      	85.850044      	97.86681       	104.512054     	88.20487       	97.24986       	103.0712       	86.53141       	93.67301       	107.39213      	96.45878       	96.85449       	104.11947      	98.63343       	96.94616       	103.958015     	97.12819       	93.23131       	105.9696       	100.55249      	93.371284      	101.7506       	96.55727       	95.25954       	101.103775     	96.961845      	100.264404     	108.74008      	108.08269      	103.37636      	109.30802      	105.67599      	83.269775      	53.563152      	
92.02972       	101.01991      	91.26332       	84.73869       	98.040474      	94.687454      	86.015755      	96.60328       	92.42269       	88.01354       	100.66623      	94.96183       	90.35362       	95.42559       	100.68349      	96.73813       	92.78956       	98.92916       	92.307526      	96.43932       	98.93075       	90.990776      	92.76954       	102.64067      	95.59513       	86.17887       	98.16524       	96.64584       	89.75578       	99.33763       	97.95602       	88.6465        	100.33902      	99.32807       	86.04439       	102.44247      	100.12515      	87.0887        	103.43636      	95.58865       	79.402824      	92.779526      	97.34949       	93.75654       	89.33168       	98.97368       	92.75854       	89.01708       	99.12794       	88.95915       	92.002975      	96.030075      	93.65695       	95.51655       	93.33308       	94.70485       	95.6394        	97.46636       	94.82293       	93.99633       	92.0816        	93.38193       	99.537315      	92.52849       	93.89186       	102.098236     	92.47209       	86.021576      	95.49124       	98.30049       	94.37641       	89.880684      	93.42829       	89.21235       	94.45635       	100.036674     	87.96861       	90.48038       	99.38874       	89.642654      	96.21008       	100.79659      	86.98608       	88.52099       	104.491714     	85.137215      	86.14132       	104.684845     	88.94572       	87.99434       	104.654854     	91.87428       	89.865005      	104.97536      	99.61424       	93.817955      	99.37419       	106.851166     	86.93279       	64.30732       	
98.073166      	87.064545      	103.24629      	93.07989       	89.18129       	102.84683      	86.16625       	90.10108       	102.29928      	88.16173       	87.49425       	98.81095       	98.09416       	91.43783       	95.390434      	95.56522       	92.3691        	95.69015       	97.09914       	91.79621       	92.84266       	102.95695      	95.63579       	90.13254       	100.04951      	93.86049       	91.781006      	102.31327      	90.51824       	90.79839       	105.352295     	101.961914     	84.50357       	99.412155      	102.81047      	86.38078       	104.521164     	99.291084      	88.857124      	102.14796      	93.598076      	82.82649       	104.4971       	94.71538       	88.17073       	101.2507       	91.24231       	83.331375      	103.14014      	98.27204       	87.768265      	100.728874     	99.490326      	91.04119       	98.69577       	94.25534       	92.78444       	101.634735     	91.84098       	91.07658       	103.05561      	91.02171       	85.88514       	105.0956       	93.32768       	88.459946      	100.97363      	88.93183       	92.39344       	96.09859       	88.535675      	89.73096       	98.44178       	88.55676       	97.31527       	101.82549      	87.60524       	95.0757        	102.4346       	93.63066       	91.42796       	93.46288       	85.55238       	92.0996        	98.82575       	91.43261       	96.07101       	99.910515      	98.190445      	92.50553       	96.227936      	96.02714       	97.12744       	102.49313      	104.42702      	102.89384      	105.684586     	104.96673      	92.83507       	65.10264       	
98.857834      	87.27511       	105.90506      	95.77884       	84.92578       	103.77755      	96.08868       	87.54678       	105.326004     	90.35527       	85.96251       	109.7832       	95.70616       	85.19642       	111.69508      	92.168625      	86.184525      	111.098785     	92.443924      	80.199455      	106.48347      	99.90644       	80.110954      	102.58129      	98.68184       	85.01991       	107.71486      	101.048935     	75.769684      	102.46153      	102.75769      	81.20712       	102.21497      	99.31308       	80.48817       	99.246956      	104.48467      	82.47253       	98.24223       	100.598236     	88.27644       	95.6654        	95.02631       	85.26647       	105.971115     	99.981804      	83.62547       	100.88378      	100.15791      	83.971245      	101.71118      	95.7069        	77.33203       	100.25099      	97.247246      	79.816895      	97.65584       	92.591965      	85.050255      	102.97553      	89.00389       	82.381485      	100.239105     	94.78833       	82.26571       	99.155235      	106.89019      	83.75061       	99.29857       	100.68583      	96.39369       	90.34981       	84.10023       	73.99221       	85.39217       	98.695595      	88.05839       	100.3121       	97.70813       	83.485146      	96.14364       	98.45242       	91.55269       	100.969406     	95.89487       	87.42797       	102.53156      	102.93043      	85.91662       	98.56911       	97.7798        	87.176384      	104.35218      	102.65836      	91.38199       	109.62701      	124.27046      	117.74073      	87.82799       	64.496666      	
99.76473       	94.23296       	105.76416      	86.201256      	94.17186       	101.55388      	83.96582       	97.59799       	101.98722      	84.53493       	98.925255      	106.31623      	84.5765        	101.78659      	106.328606     	77.02944       	96.949715      	103.97321      	93.20085       	101.623375     	104.494835     	93.94463       	103.38106      	105.33742      	95.61525       	103.02209      	101.04134      	98.71601       	105.00677      	97.34413       	95.15102       	105.59         	100.01086      	93.64086       	102.705315     	100.95729      	99.10269       	110.16417      	103.18893      	93.25943       	107.14404      	100.30815      	92.32083       	107.94723      	100.30566      	99.91491       	111.94484      	99.1904        	96.61829       	110.034195     	100.580574     	98.22157       	111.57833      	100.080605     	101.154106     	119.9277       	99.311516      	98.37387       	114.2942       	106.2168       	105.2058       	121.51546      	105.72536      	110.19976      	133.67644      	100.71429      	92.00757       	99.45402       	75.01486       	53.338905      	44.59292       	26.607647      	11.049951      	24.222328      	26.026258      	27.397503      	79.394646      	102.058334     	94.032585      	95.67708       	106.02152      	94.24299       	97.14214       	103.257675     	95.5341        	96.14748       	107.76405      	97.12874       	92.59455       	107.92415      	95.09035       	93.75263       	111.71036      	104.89323      	102.29371      	117.82392      	125.14852      	118.49309      	88.266754      	67.164276      	
89.6884        	107.45785      	89.856094      	94.62601       	103.612564     	90.230415      	94.03322       	100.03371      	92.45654       	90.15797       	102.952156     	93.129265      	95.08829       	103.09351      	98.02079       	103.99484      	97.325485      	92.254814      	101.979614     	104.62358      	97.47503       	102.06589      	104.843346     	98.30196       	103.46361      	104.2701       	97.470375      	105.7777       	107.44722      	107.26191      	106.07744      	101.0757       	103.32154      	107.18731      	101.0577       	107.60179      	110.859726     	100.35961      	108.89872      	115.903824     	101.37367      	105.55859      	112.39931      	105.77982      	112.7403       	111.15621      	105.13773      	111.332596     	118.78331      	104.698364     	114.07265      	118.21111      	111.67547      	120.09355      	113.91027      	113.39887      	123.48675      	121.54986      	120.059814     	132.98447      	124.85357      	132.25536      	145.9501       	108.65262      	70.197296      	63.265663      	51.142838      	42.972347      	33.97231       	26.715107      	19.975473      	20.125214      	11.4176445     	1.6169022      	5.218768       	10.360414      	36.25877       	94.96534       	98.632935      	91.40312       	99.23165       	99.01793       	92.30965       	100.41244      	103.54191      	99.89257       	98.388466      	102.963104     	100.562416     	102.67746      	108.93852      	104.16633      	104.65175      	113.679695     	116.695625     	115.46847      	118.74284      	124.3633       	112.08548      	90.4307        	
97.17558       	96.657585      	96.96567       	98.34729       	98.99445       	100.26765      	94.15883       	99.34717       	105.187935     	97.04666       	94.02132       	102.69666      	102.30978      	100.65153      	104.734055     	104.77767      	99.34047       	106.86878      	106.2795       	102.39742      	105.24383      	103.87687      	103.904144     	108.654495     	100.23021      	94.06363       	111.81306      	105.78662      	95.43249       	106.28543      	108.97318      	102.86064      	110.11258      	110.25926      	104.383354     	112.80688      	114.38718      	104.59242      	117.619415     	109.59828      	103.7454       	119.28821      	114.55834      	103.255135     	117.74391      	113.95114      	118.50386      	117.89222      	118.35209      	123.12751      	124.97013      	121.05779      	129.53107      	136.12695      	129.28772      	136.81375      	151.46086      	142.67381      	113.205696     	122.55223      	102.28486      	78.76525       	74.84871       	52.570503      	40.937843      	48.559353      	40.271355      	27.989834      	41.08933       	36.86202       	17.39952       	34.664516      	28.508533      	2.6360388      	19.259441      	23.941952      	30.584425      	86.033356      	104.64632      	95.8431        	98.88094       	106.150406     	92.53304       	97.15441       	108.229576     	99.70511       	99.174644      	108.541176     	96.98454       	104.386444     	111.716965     	99.318855      	103.16568      	111.38504      	114.25644      	110.7846       	113.299355     	120.176056     	117.62692      	101.65425      	
93.06761       	93.73683       	94.20837       	103.070915     	96.74051       	101.02733      	105.18399      	93.8138        	100.60361      	102.22696      	97.852554      	102.95048      	108.221436     	96.24098       	97.26521       	107.18628      	111.62474      	96.07466       	106.07797      	112.73122      	99.95152       	107.722084     	114.67415      	96.50068       	108.17833      	117.90058      	106.3389       	108.588326     	118.20651      	105.36568      	114.47441      	120.208336     	107.30509      	111.26618      	119.01183      	112.30014      	112.56918      	121.50996      	115.26146      	108.25886      	121.78857      	118.46351      	116.56831      	124.991905     	124.02862      	123.69421      	126.2943       	128.80531      	134.88736      	137.30826      	135.05322      	137.74055      	156.93222      	145.82634      	117.379036     	101.19671      	89.76568       	75.708336      	76.00907       	68.77536       	49.633976      	49.717808      	55.805576      	41.871         	46.272762      	47.691227      	30.946877      	41.80102       	42.806034      	26.834455      	33.158947      	29.691063      	21.4037        	23.328135      	17.34123       	9.625047       	34.174976      	77.7445        	93.511055      	101.33763      	102.74234      	103.69531      	104.07658      	99.25504       	99.66996       	104.84114      	102.44304      	98.19793       	103.28974      	105.14848      	106.150604     	104.48278      	106.06719      	108.478714     	111.06946      	115.10413      	119.47627      	120.51669      	112.89499      	100.168785     	
101.8716       	105.77035      	88.86099       	104.87352      	108.9051       	93.233444      	101.48413      	111.81478      	92.48439       	101.62469      	110.39319      	98.12995       	109.267006     	112.19952      	102.4227       	113.54125      	112.98244      	99.91649       	109.06741      	122.92957      	101.198944     	104.00597      	128.47737      	101.55614      	105.254585     	131.48845      	112.22342      	111.11768      	133.68707      	119.23483      	115.51281      	130.70084      	120.95499      	113.86768      	138.91405      	120.76029      	120.92522      	144.94057      	130.29613      	123.233        	144.79956      	132.23016      	125.14741      	146.38782      	141.9448       	134.76302      	150.15906      	148.25813      	161.94302      	152.84329      	124.2024       	98.59722       	103.96025      	85.28279       	63.278687      	73.08497       	61.062786      	47.438797      	68.030014      	58.39172       	39.955235      	60.33054       	52.003887      	39.49609       	48.428806      	44.41014       	34.52157       	49.275208      	42.439         	24.054878      	46.444706      	38.384285      	15.240087      	29.202646      	16.96348       	13.7881775     	47.785645      	67.785774      	82.50028       	109.14131      	107.96712      	100.342155     	108.570724     	103.47932      	95.17444       	114.20792      	102.943695     	93.57708       	111.57114      	110.07348      	101.407295     	113.42955      	112.1789       	100.39799      	115.98314      	117.93782      	111.36142      	110.42281      	117.067795     	121.26364      	
104.47063      	99.4336        	110.50581      	97.467606      	95.85611       	109.56962      	108.94967      	98.1924        	106.1893       	108.76395      	99.60742       	108.21826      	109.23481      	104.00612      	109.35955      	115.860146     	107.31263      	105.367294     	115.854004     	107.29091      	113.832        	119.455536     	113.98567      	113.72969      	125.445526     	119.109344     	110.82985      	125.80384      	119.16173      	118.466225     	133.79897      	123.23265      	125.79273      	139.02992      	130.33205      	135.08536      	140.30908      	133.41101      	139.67522      	150.93248      	143.81027      	140.8949       	158.4202       	160.9852       	154.69485      	123.845085     	114.59651      	115.87859      	103.12061      	80.70037       	77.94704       	70.79107       	61.41902       	70.24943       	67.0314        	42.75686       	60.251316      	65.98498       	46.516792      	56.756435      	53.63021       	43.553738      	57.3406        	53.056274      	37.877926      	54.037743      	48.6818        	35.302536      	41.520134      	43.028214      	36.783         	32.337196      	19.197277      	13.233103      	15.1628685     	16.471342      	34.35764       	69.61017       	89.04838       	99.72408       	103.907906     	105.08808      	97.72781       	103.89362      	103.22538      	97.34545       	106.83292      	107.61341      	101.07328      	106.01519      	108.2362       	99.866455      	112.694824     	108.992905     	101.62993      	110.40107      	119.10829      	113.241005     	111.49985      	112.5197       	
104.15564      	103.62192      	104.60796      	104.582436     	100.92391      	105.6027       	103.599724     	100.274086     	105.43712      	107.81937      	106.520195     	105.802895     	107.597855     	108.34252      	116.85865      	114.11461      	116.42122      	117.21794      	115.28242      	122.12709      	118.90689      	116.77449      	123.90833      	122.29269      	120.51431      	132.16844      	122.89574      	118.99702      	143.06888      	135.46095      	119.23486      	144.30148      	142.32433      	128.74982      	148.46666      	143.9732       	137.61687      	159.10988      	154.63995      	150.74269      	183.50648      	146.29921      	127.17072      	129.45297      	88.249405      	70.47064       	89.75077       	69.45551       	60.196877      	74.82236       	62.623333      	62.990562      	72.51991       	57.068413      	56.510654      	70.897896      	52.129562      	51.799446      	67.99086       	50.305233      	53.341366      	58.34645       	48.879818      	44.95065       	57.22802       	42.888268      	42.279026      	49.917618      	36.48165       	41.57176       	47.406914      	19.004137      	21.312191      	28.569878      	16.035013      	0.67370665     	19.750645      	44.388596      	72.709885      	110.943306     	112.82521      	88.809906      	108.74444      	109.9978       	93.945724      	102.63112      	108.21524      	95.13072       	102.17931      	114.2022       	100.80482      	107.92394      	115.863434     	102.97523      	107.80831      	117.473076     	108.467545     	101.76545      	105.99561      	109.63789      	
100.22583      	105.003456     	97.29098       	117.03809      	106.82634      	96.2274        	108.49529      	117.90296      	101.89522      	107.69486      	118.25274      	106.16879      	116.5778       	121.33882      	109.891556     	117.14653      	124.82457      	108.00163      	119.341156     	132.46214      	116.97446      	117.94438      	134.61229      	121.493034     	128.60915      	140.9539       	127.40644      	129.9046       	143.87407      	136.921        	140.98593      	145.41061      	142.99036      	145.10634      	158.81564      	150.24527      	156.21767      	166.90883      	177.46146      	173.20737      	134.76234      	89.95076       	80.45553       	78.791916      	68.534904      	74.83441       	71.841805      	65.691284      	76.83947       	74.16029       	60.8816        	72.244194      	75.002         	54.606724      	67.019966      	68.56646       	55.44481       	64.34036       	63.72979       	47.434605      	61.078445      	61.712627      	41.231464      	59.09825       	55.05032       	32.140465      	41.520916      	54.613876      	37.31274       	29.369354      	43.474712      	18.98332       	26.137882      	34.56035       	14.442439      	19.578987      	35.797775      	43.36705       	79.34748       	109.09356      	102.385254     	96.24179       	114.83434      	99.86275       	94.17644       	112.5734       	103.31544      	97.172844      	109.20324      	103.99454      	104.83642      	107.74317      	108.305756     	110.77654      	113.174034     	109.03207      	116.08752      	123.31453      	120.37167      	116.685616     	
110.34893      	97.029785      	110.383415     	107.51228      	103.92855      	111.708954     	99.89426       	100.91833      	111.97998      	111.0726       	104.05289      	115.329544     	122.614784     	106.51258      	121.808846     	134.61801      	111.32362      	115.14228      	119.63793      	121.27066      	130.05669      	121.10559      	123.96782      	137.3041       	132.5756       	128.74362      	139.7748       	139.5508       	136.20221      	146.47008      	143.6993       	141.83995      	152.01761      	154.84477      	147.27509      	161.32635      	169.3353       	164.65753      	172.9994       	130.75444      	86.81314       	74.96752       	80.04016       	68.811874      	60.784065      	77.991104      	66.05506       	63.80032       	77.1408        	63.768303      	60.64837       	72.02377       	68.61237       	57.82875       	66.69652       	65.83536       	56.36818       	69.97008       	64.17037       	48.39832       	60.19196       	67.45822       	49.844624      	53.641376      	61.677986      	42.789726      	48.97337       	49.84157       	38.726463      	38.159256      	36.888924      	32.41197       	28.959337      	22.065723      	14.485607      	20.689608      	27.142857      	41.15643       	80.155815      	105.40732      	104.78894      	101.98439      	106.85324      	102.719864     	102.600624     	106.16462      	106.708115     	108.173294     	113.91857      	105.4418       	111.51786      	115.59338      	102.05917      	108.798546     	112.41943      	116.023056     	119.08751      	112.07631      	106.68738      	111.03602      	
116.06326      	103.33272      	109.66823      	110.219635     	100.49999      	119.68135      	110.84054      	99.77137       	116.490524     	116.701096     	105.23288      	115.30879      	122.3393       	108.46883      	113.64747      	131.90517      	112.02597      	105.49924      	123.892654     	127.40727      	122.78566      	124.334724     	131.4964       	127.52347      	135.29892      	133.33217      	131.90625      	143.03891      	137.43031      	138.49486      	150.29068      	145.98936      	142.5067       	153.1032       	162.19395      	155.10866      	156.91824      	179.52567      	161.80467      	118.80905      	106.95351      	77.694115      	65.43776       	79.020454      	68.934975      	63.729275      	77.97806       	65.18248       	67.93346       	82.67294       	66.69573       	60.143864      	81.75864       	78.17551       	52.717144      	70.56115       	68.23482       	53.480732      	67.75963       	66.52892       	52.624557      	61.28799       	60.01318       	51.57257       	56.613224      	51.128365      	42.008022      	54.656364      	50.580303      	33.56696       	43.262268      	44.429478      	30.138155      	31.173489      	33.613228      	20.238253      	24.806805      	36.41486       	54.00759       	104.00296      	109.91553      	98.094         	112.79042      	109.87777      	92.56021       	104.52116      	115.81962      	102.433784     	104.34745      	111.82283      	106.55197      	109.67714      	118.462685     	115.69823      	115.485825     	119.23815      	120.00511      	122.64043      	119.880745     	120.86767      	
106.17574      	99.34102       	104.63255      	109.698395     	103.02152      	109.19889      	114.342285     	102.61832      	105.80865      	116.983696     	108.918205     	108.6493       	118.72624      	107.79883      	115.718636     	124.637085     	115.75693      	116.04887      	124.726395     	123.70756      	125.15655      	126.313644     	120.416916     	131.07864      	135.31888      	128.61623      	131.83757      	140.3422       	131.34705      	138.01862      	143.09848      	134.39233      	142.83977      	147.45554      	142.44084      	157.05948      	162.26332      	157.10791      	184.77214      	138.66861      	93.4259        	91.698204      	85.30495       	57.8135        	70.11635       	78.302086      	59.6093        	72.55343       	81.28716       	58.32463       	69.90467       	80.1877        	68.75441       	65.58212       	61.103012      	50.086464      	70.15073       	72.25746       	52.452415      	63.203884      	69.8224        	53.204594      	57.272686      	63.763298      	54.316097      	57.134758      	55.890934      	42.91318       	54.083702      	47.83097       	37.978962      	46.40014       	42.798622      	23.739895      	30.884743      	22.327868      	20.382854      	29.798117      	51.27617       	89.24615       	108.949814     	99.73332       	102.04072      	108.92697      	105.389565     	102.301956     	118.19707      	107.296265     	101.31544      	115.85838      	107.064285     	103.24581      	123.89424      	110.35076      	102.56021      	120.07878      	131.16353      	122.976        	110.70812      	105.0944       	
102.55852      	104.694016     	103.9969       	103.91127      	104.8929       	104.33646      	102.76415      	107.88978      	107.60137      	103.86146      	106.125946     	108.774704     	110.82602      	116.990074     	111.40355      	110.978065     	118.39445      	117.95604      	116.77022      	119.29363      	122.775925     	121.176056     	125.38538      	129.23793      	122.70944      	127.70938      	132.58829      	129.35512      	135.90509      	136.71094      	139.05125      	142.52003      	141.56459      	144.92581      	153.77304      	158.62874      	158.81313      	172.07034      	185.72052      	156.85745      	125.982544     	102.86076      	82.3391        	72.56288       	70.79003       	69.231186      	73.95573       	69.139206      	65.81366       	72.126656      	77.53144       	63.97536       	63.90842       	75.45447       	64.24659       	64.508385      	73.003136      	55.91864       	58.122246      	71.87067       	58.465183      	56.716938      	68.71899       	51.660496      	49.64839       	61.214596      	45.487015      	45.94968       	54.315823      	44.43212       	35.430717      	41.97128       	35.409603      	26.686443      	33.127357      	22.456352      	13.611152      	22.569868      	37.571125      	85.82606       	106.9524       	101.660416     	97.776115      	106.9243       	105.26615      	101.06186      	108.21477      	112.01259      	104.12546      	109.31422      	109.25704      	110.36695      	114.25075      	110.90306      	113.545525     	121.511955     	121.25554      	117.09245      	113.48084      	114.459625     	
108.177925     	100.1974       	105.696846     	104.7952       	101.74986      	108.6832       	105.82034      	101.06397      	107.71076      	109.71687      	105.269295     	112.29878      	107.25549      	110.1274       	124.310905     	112.652725     	107.07389      	125.00743      	120.40919      	112.385345     	126.48198      	122.998955     	115.92741      	123.521515     	123.416306     	117.47957      	130.40944      	130.66179      	126.45151      	138.33632      	128.74039      	125.53345      	139.22122      	155.36334      	136.82872      	143.47208      	162.81274      	150.03583      	168.1577       	181.43442      	124.08953      	101.30411      	96.305756      	71.098785      	69.13637       	77.77251       	68.01379       	68.98247       	80.588005      	70.029366      	64.583855      	81.87377       	68.11144       	63.030113      	75.488045      	67.88792       	72.967575      	68.7695        	63.35684       	62.29379       	64.93478       	57.47766       	54.6517        	60.998882      	50.030655      	47.552006      	62.081913      	47.123344      	46.33706       	54.87098       	43.582527      	40.02917       	41.979885      	32.131203      	28.789253      	28.272545      	17.308474      	22.34434       	41.155617      	68.24821       	103.81031      	112.83235      	101.73197      	101.35373      	117.8343       	105.65717      	100.319016     	108.10633      	104.49029      	101.80895      	113.688126     	111.62825      	103.063644     	116.3936       	115.40358      	110.09682      	122.007095     	126.945076     	120.0885       	122.14228      	
104.169876     	109.449265     	114.88171      	103.80936      	108.24581      	115.00448      	103.10277      	114.39008      	121.53032      	109.75427      	124.60944      	107.40054      	78.32539       	90.16688       	109.11901      	108.7245       	111.47382      	121.57132      	107.33634      	111.32376      	123.19384      	116.53167      	115.78002      	125.57018      	121.440704     	117.303185     	132.36346      	129.37808      	118.45565      	133.94458      	138.8337       	128.94467      	135.03381      	143.28543      	139.56941      	151.38963      	154.91869      	143.16014      	171.0806       	177.70993      	121.98626      	114.31789      	95.36604       	61.78326       	76.311676      	78.6972        	59.315613      	80.15881       	82.79247       	65.99987       	71.47279       	71.21937       	63.168026      	77.53621       	68.18656       	60.546406      	78.8549        	72.18957       	54.08221       	73.356926      	67.2824        	55.35704       	69.79917       	61.258606      	51.097027      	66.10138       	57.41198       	43.461876      	60.09404       	45.263474      	31.957964      	59.625957      	35.5036        	19.75311       	34.84162       	24.885784      	14.438592      	31.651764      	40.280537      	60.468113      	107.1386       	109.250496     	98.196465      	108.969955     	106.09022      	106.1505       	109.78029      	102.55484      	106.15717      	112.53032      	109.61703      	107.23746      	112.44178      	108.29157      	108.763664     	123.94406      	125.49611      	115.63543      	110.549164     	107.46838      	
103.881516     	126.561615     	113.54289      	127.58896      	134.23276      	118.6524       	138.9501       	138.40143      	110.30964      	93.555984      	68.98665       	36.322323      	34.54889       	34.624947      	44.189865      	61.85024       	100.55325      	111.38034      	123.47216      	118.56387      	112.31285      	120.79434      	123.96184      	124.01457      	125.45735      	127.40636      	131.81299      	131.22122      	129.1881       	135.31647      	136.30138      	131.02045      	143.34102      	150.07004      	142.3182       	147.86409      	153.52531      	154.06566      	180.83057      	165.10994      	122.72957      	126.815445     	91.615845      	68.89738       	82.92388       	69.34575       	55.743717      	78.522865      	78.65889       	63.659927      	71.677605      	75.16829       	64.66609       	79.88313       	77.27218       	62.29703       	77.258865      	74.61567       	63.136448      	69.95928       	67.39702       	58.06093       	67.587585      	68.18631       	56.5534        	70.156586      	59.012253      	50.239277      	57.55996       	46.046062      	40.50315       	48.842125      	41.262497      	29.412882      	34.171665      	29.067858      	14.596659      	29.132141      	35.7679        	39.3927        	98.061386      	108.56251      	96.094604      	107.71518      	106.05875      	94.19966       	106.60108      	111.75126      	101.052986     	112.921875     	114.74979      	99.49501       	115.50904      	109.627235     	99.19325       	117.63899      	127.58627      	118.12793      	110.068474     	100.02679      	
129.6193       	142.19676      	160.9451       	125.707954     	99.23413       	80.25084       	70.23147       	59.55178       	55.415897      	44.872276      	37.056023      	38.938545      	24.888674      	22.88137       	33.840218      	42.580544      	84.49406       	119.50924      	118.00483      	116.43011      	120.398346     	124.75371      	120.323814     	124.017365     	122.29003      	128.20006      	131.4573       	124.55375      	127.9554       	141.29655      	138.7495       	136.66513      	147.05264      	143.59262      	146.13925      	157.46852      	158.47617      	160.87184      	170.5882       	178.42484      	152.80621      	123.3162       	100.19465      	86.12353       	83.852745      	70.006065      	71.366325      	80.65381       	74.50667       	74.42829       	77.8813        	73.68568       	74.54903       	77.360275      	71.8744        	71.44477       	70.43725       	67.88483       	70.746155      	66.10536       	62.411655      	65.69661       	69.354355      	61.194626      	56.501022      	60.96869       	57.52417       	51.627457      	54.290386      	51.736965      	42.478783      	45.15734       	39.91992       	32.514404      	37.996284      	30.372435      	18.826744      	26.388897      	20.648476      	33.66627       	80.17449       	109.68527      	106.83843      	100.92923      	108.10648      	108.79079      	98.717575      	112.1794       	107.79135      	100.468376     	112.205925     	115.03326      	104.44906      	110.27094      	117.84859      	112.35639      	116.0913       	124.92646      	127.50373      	122.15544      	
106.39099      	103.98563      	85.20385       	70.385635      	52.769844      	46.34042       	52.43333       	34.376423      	35.28499       	44.652832      	33.689224      	31.081474      	28.415127      	16.286837      	19.352413      	36.037903      	51.64714       	106.57156      	124.98507      	115.11093      	123.60985      	120.99793      	110.80992      	126.26629      	129.39944      	120.15427      	128.94286      	131.22801      	124.72183      	131.67734      	136.15846      	134.15594      	136.63982      	149.90294      	138.5252       	140.1581       	160.27777      	150.0234       	155.1538       	183.71637      	167.14438      	125.46046      	118.64943      	91.452774      	64.877         	74.80341       	71.02808       	64.14014       	81.48942       	77.67646       	66.78576       	71.61992       	71.27066       	67.181915      	65.54947       	65.875824      	64.91994       	74.68189       	67.91148       	61.59755       	73.23407       	72.64334       	64.984215      	68.27313       	57.453255      	55.76867       	67.2439        	55.02492       	52.849686      	59.887882      	47.83333       	39.0256        	57.253994      	33.21671       	26.566301      	44.708538      	24.129751      	14.407006      	27.511784      	30.12263       	61.925457      	117.14021      	103.0625       	99.62934       	119.867805     	102.13559      	99.53406       	114.44125      	102.30268      	100.48174      	113.56461      	110.139854     	100.92448      	117.99277      	115.90346      	113.64662      	122.19124      	126.165695     	119.518364     	113.85656      	
