# www.neaspec.com
# Scan:	 	Whitelight Imaging
# Project:	 	20251007_PS
# Description:	 	
# Date:	 	10/07/2025 13:27:15
# Scanner Center Position (X, Y):	[µm]	49.99	50.01	 
# Rotation:	[°]	0	 	 
# Scan Area (X, Y, Z):	[µm]	5.000	5.000	0.000
# Pixel Area (X, Y, Z):	[px]	100	100	1
# Interferometer Center/Distance:	[µm]	548.096	0.000	 
# Averaging:	 	1	 	 
# Integration time:	[ms]	5	 	 
# Wavenumber Scaling:	 	1.000000	 	 
# Laser Source:	 	4.5-15 µm nano-FTIR laser
# Detector:	 	R
# Target Wavelength:	[µm]	7.502	 	 
# Demodulation Mode:	 	Fourier
# Tip Frequency:	[Hz]	241,340.500	 	 
# Tip Amplitude:	[mV]	45.700	 	 
# Tapping Amplitude:	[nm]	77.130	 	 
# Modulation Frequency:	[Hz]	0.000	 	 
# Modulation Amplitude:	[mV]	0.000	 	 
# Modulation Offset:	[mV]	0.000	 	 
# Setpoint:	[%]	79.75	 	 
# Regulator (P, I, D):	 	4.206850	8.625812	1.000000
# Tip Potential:	[mV]	0.000	 	 
# M1A Scaling:	[nm/V]	0.426	 	 
# M1A Cantilever Factor:	 	1,000	 	 
# Q-Factor:	 	487.4	 	 
# Version:	 	2.1.11536.0
126.13212      	124.95806      	122.908936     	133.14743      	140.11012      	135.2254       	137.18375      	139.38791      	148.47513      	149.92653      	152.53435      	157.97191      	164.13307      	170.36783      	177.44838      	182.7219       	134.09422      	101.89409      	82.39188       	67.35477       	62.0434        	59.611565      	65.13848       	64.400406      	63.94717       	61.656864      	67.05271       	66.04249       	60.025204      	62.745564      	66.19527       	63.230244      	59.677822      	59.773033      	58.13235       	55.82266       	53.857876      	55.453335      	51.23413       	47.22424       	48.11531       	44.24561       	44.776413      	43.2945        	40.29868       	39.898315      	33.42212       	28.871746      	33.479935      	31.760742      	23.258022      	24.02509       	40.183716      	35.69536       	25.396198      	46.439663      	82.382515      	94.7634        	96.03102       	97.41021       	97.06571       	94.4104        	96.492256      	95.984726      	97.40401       	90.6886        	95.18355       	97.14803       	93.62177       	93.561806      	93.93924       	98.32244       	95.73576       	95.93285       	97.829636      	95.031494      	95.556366      	95.46799       	99.57936       	96.60352       	95.01954       	98.95673       	96.55899       	92.33557       	100.36867      	99.26123       	96.3877        	98.96535       	101.78191      	101.91365      	93.509315      	95.3083        	99.64043       	99.614975      	95.789345      	99.225174      	105.795006     	103.086235     	99.90477       	99.748955      	
123.7173       	126.884        	130.52338      	132.81975      	128.59105      	132.77733      	134.26947      	137.15843      	137.68094      	146.36967      	148.7256       	156.73007      	170.90953      	166.51927      	170.66545      	184.24689      	139.82956      	99.19095       	78.8798        	69.29147       	69.2249        	61.97787       	67.967155      	60.18711       	60.956833      	63.3776        	62.973717      	63.790596      	60.56095       	55.267982      	56.34898       	54.830406      	55.568916      	54.78565       	55.36927       	51.28786       	50.08698       	51.595303      	56.389767      	45.61834       	41.148453      	38.46282       	41.889996      	45.556736      	45.633247      	46.018406      	42.14673       	42.106316      	38.4528        	34.81814       	37.764038      	35.81824       	28.645975      	41.296078      	52.7299        	75.95025       	96.36828       	94.73589       	93.45551       	92.65459       	98.199936      	97.779976      	95.625336      	93.41113       	94.91576       	94.840126      	92.171844      	92.87723       	98.92822       	96.20226       	91.87996       	95.66281       	96.04516       	93.71678       	91.18195       	91.29961       	94.63957       	90.95645       	90.89566       	95.06681       	92.95471       	93.67882       	93.143196      	94.855255      	92.3462        	90.90288       	93.2253        	95.287155      	91.66133       	96.56938       	95.03609       	94.82309       	96.90511       	101.34065      	103.53942      	106.32297      	106.44611      	96.04015       	92.89043       	91.13201       	
117.92121      	120.414055     	122.57492      	127.31599      	131.56877      	134.98335      	133.12582      	132.63773      	136.46329      	141.95827      	142.61887      	150.36577      	154.9709       	161.93414      	164.66911      	179.12083      	158.23415      	110.17424      	82.7493        	63.374977      	52.420193      	48.55198       	55.628757      	50.917507      	53.408077      	55.524605      	51.83781       	46.50959       	45.334637      	46.52276       	42.928574      	40.318527      	42.203182      	36.05152       	37.083824      	34.599525      	36.506004      	37.250828      	54.900814      	58.362312      	57.752075      	57.869083      	56.842716      	57.606144      	58.214565      	48.644146      	49.070156      	56.045433      	51.803425      	55.203476      	58.513363      	49.002438      	49.479027      	64.98817       	100.452545     	98.97834       	95.0407        	97.54329       	96.738655      	94.934395      	92.45211       	99.239395      	94.1355        	87.74173       	93.54039       	96.05647       	94.85841       	91.578766      	94.07683       	94.11291       	88.89544       	93.876595      	94.78618       	91.091324      	92.50642       	92.14582       	96.18685       	96.488655      	92.15044       	96.66508       	98.749916      	95.88143       	92.9558        	99.24208       	101.06462      	106.20799      	102.083725     	97.08235       	95.34208       	104.26057      	113.80683      	113.68697      	120.02382      	119.10353      	115.91844      	121.42838      	111.9997       	99.1634        	87.18462       	84.1348        	
125.81779      	118.2733       	120.019646     	131.71951      	125.84105      	130.04037      	132.5028       	133.55652      	137.63766      	136.6533       	138.48203      	142.89682      	149.05807      	151.42674      	154.32553      	164.11873      	170.03531      	115.82503      	79.34428       	60.865227      	50.299435      	46.673172      	47.94421       	48.282223      	53.099308      	54.39243       	42.13271       	42.818336      	44.81787       	46.829773      	48.950478      	39.00479       	26.450962      	21.103956      	25.882833      	29.914486      	32.372154      	29.800571      	37.217003      	41.446976      	48.760918      	46.97113       	46.84827       	67.76776       	71.23033       	75.65073       	79.02607       	75.64887       	81.04137       	96.58278       	95.27723       	97.521965      	99.949326      	99.1064        	96.49158       	99.688385      	100.236885     	97.95328       	91.89649       	90.71294       	94.494194      	83.80579       	82.69417       	90.9571        	97.05218       	91.23265       	93.11076       	98.92789       	94.99138       	87.415245      	93.220055      	92.13257       	92.35036       	91.70074       	90.14327       	92.28975       	95.470245      	88.941666      	86.40763       	95.21629       	98.7732        	93.472946      	91.9903        	95.03343       	93.52315       	92.34347       	96.448006      	95.00349       	97.10165       	97.922935      	100.31456      	97.33862       	94.44336       	93.63325       	105.59496      	97.201614      	97.570015      	93.76766       	92.13649       	90.1375        	
116.77984      	114.81034      	117.15687      	126.05563      	122.30492      	121.87382      	129.79066      	126.694695     	125.34643      	129.50555      	131.6574       	136.7478       	140.50821      	137.9339       	146.5259       	151.89505      	163.91203      	108.67524      	84.45201       	58.585854      	41.582485      	43.72412       	44.137173      	38.63708       	39.725166      	40.6736        	37.049282      	33.06179       	26.35453       	35.82361       	24.219374      	26.391193      	32.46453       	23.63551       	14.138474      	31.303463      	45.99153       	35.953983      	42.328896      	50.721104      	54.764545      	54.87036       	75.91756       	89.70821       	94.46622       	97.24842       	99.06481       	104.74484      	108.30793      	95.1709        	90.48893       	96.3282        	95.6807        	93.47325       	95.283516      	100.99369      	94.683754      	93.4276        	93.90913       	100.66813      	95.858116      	91.26506       	90.76346       	93.63502       	92.10287       	94.306435      	93.44816       	93.94042       	96.597046      	90.459404      	94.41711       	91.84073       	91.93416       	90.346855      	91.43181       	91.00928       	89.69998       	88.18857       	94.11158       	90.72077       	91.654         	89.319534      	93.190605      	91.82354       	89.29464       	92.180664      	84.57324       	86.69894       	90.662926      	88.16649       	85.45337       	89.16151       	101.141106     	104.47591      	93.106186      	91.985916      	101.95687      	99.72637       	95.71833       	91.395546      	
107.63182      	113.42692      	115.96752      	113.10505      	115.71892      	122.40026      	124.41228      	124.94969      	126.93985      	129.22943      	130.14334      	129.13509      	140.80504      	149.79242      	142.71475      	148.25914      	159.93716      	106.63417      	72.19534       	50.48129       	39.079643      	31.201876      	35.70493       	38.846157      	39.267727      	32.37179       	32.629807      	34.77472       	34.115376      	44.324623      	40.182762      	45.49538       	45.015373      	43.44205       	44.74375       	47.586166      	51.31563       	62.831055      	73.34006       	81.248505      	101.37427      	101.21753      	112.13874      	112.56182      	103.4714       	109.29951      	100.45035      	100.79133      	102.04335      	97.18535       	107.38577      	104.00633      	94.08008       	97.4556        	93.56408       	96.35912       	97.862045      	99.31029       	99.43935       	101.126274     	100.23642      	103.52446      	96.363396      	95.48105       	98.29679       	102.45736      	105.02116      	102.079094     	100.85236      	97.17384       	94.88417       	101.19984      	103.48036      	91.22395       	99.95285       	97.92386       	97.877686      	99.45658       	96.19201       	95.52007       	92.66947       	93.17303       	92.76784       	90.19059       	97.67817       	89.6057        	90.470894      	90.96986       	103.22696      	94.275276      	82.58157       	85.07809       	99.09743       	102.81696      	94.270515      	107.56348      	92.77599       	88.003555      	91.729485      	94.11129       	
105.16363      	103.796104     	113.46107      	109.6584       	105.88095      	113.103645     	113.552055     	107.326614     	111.99756      	108.50661      	115.56989      	121.266975     	122.83757      	127.95036      	135.36884      	136.45175      	148.67233      	117.45367      	69.99139       	50.117165      	33.357807      	35.065598      	35.974545      	33.691067      	32.38343       	32.85818       	33.573757      	37.75633       	46.904358      	60.27432       	66.44476       	64.48781       	63.040665      	61.0011        	50.170837      	72.00699       	79.319305      	100.19062      	112.4935       	100.00667      	100.90406      	99.64378       	95.87227       	99.75129       	107.07812      	98.73482       	96.32588       	102.114555     	105.43658      	99.85963       	99.49025       	98.61415       	105.581635     	90.628456      	87.38121       	95.711296      	93.05005       	89.10123       	97.88719       	99.376915      	91.85583       	95.6269        	100.67266      	94.94257       	90.59985       	95.58276       	101.00844      	95.184944      	88.3366        	90.82478       	102.15773      	97.08271       	92.61132       	92.73865       	91.566574      	89.539345      	97.5078        	106.29449      	91.185616      	83.16683       	94.71217       	96.94943       	93.6449        	88.24238       	95.00494       	91.908195      	89.50056       	93.23811       	89.33276       	87.96872       	91.888145      	101.63319      	99.21707       	102.0151       	97.64527       	103.45947      	110.59664      	103.23625      	93.95814       	91.816536      	
99.65621       	102.60072      	102.69699      	103.14029      	107.946625     	109.16749      	101.279205     	108.908905     	109.575775     	110.798775     	110.44075      	108.36288      	116.78218      	116.26419      	113.55392      	119.4775       	139.3295       	119.92387      	92.63834       	79.69946       	63.74912       	45.762234      	44.8053        	43.72325       	47.554836      	48.06699       	42.929653      	46.935467      	46.375755      	51.543583      	63.66362       	76.59154       	92.86905       	102.35351      	96.78915       	94.463394      	97.54788       	100.141        	98.958534      	87.98612       	100.575066     	102.7519       	98.35538       	97.05196       	99.44368       	96.13575       	99.722206      	98.09652       	96.136604      	94.70504       	103.91443      	94.08775       	114.96813      	97.0618        	89.149506      	96.84974       	93.78053       	89.792465      	95.298584      	96.94704       	91.60894       	92.14607       	93.49861       	93.21019       	94.313126      	92.38487       	94.16889       	93.547615      	97.42046       	89.47213       	94.66585       	94.91576       	92.91179       	92.66993       	98.589714      	92.42858       	96.98384       	92.42301       	90.866455      	88.805626      	92.312454      	93.70932       	94.50081       	94.357346      	90.13085       	95.14218       	88.11836       	82.58487       	88.41821       	89.76188       	89.931725      	83.58287       	90.402885      	93.061386      	97.61113       	99.47392       	102.31871      	104.190605     	98.212524      	91.775116      	
95.3795        	101.32746      	100.82715      	97.77896       	99.648186      	101.248886     	97.50502       	97.86324       	102.343544     	101.832245     	103.13929      	100.545074     	104.31121      	107.2046       	107.204414     	112.000854     	117.845695     	125.39132      	126.64362      	102.749985     	72.972565      	53.00615       	51.119526      	60.296055      	63.83458       	61.2191        	72.241486      	86.42231       	100.872604     	101.15808      	105.47238      	104.06946      	106.71761      	95.82124       	100.93299      	110.79577      	108.875114     	109.69225      	93.94526       	91.85251       	99.724625      	101.33259      	99.87835       	98.19899       	101.326385     	100.29637      	100.54569      	98.806244      	101.969765     	97.11549       	97.60131       	92.70862       	98.51104       	98.49651       	91.67798       	93.96357       	99.11483       	102.32177      	95.56421       	92.90762       	95.8639        	97.80022       	99.6837        	94.37359       	102.37953      	97.584885      	95.793945      	90.38524       	102.36606      	97.618034      	94.37611       	93.023834      	96.49692       	96.04432       	90.84016       	93.60538       	95.80848       	94.99106       	96.180405      	96.62716       	99.79053       	96.17264       	94.82518       	94.858635      	96.97586       	98.571014      	93.78666       	96.218735      	97.04239       	89.5068        	94.77835       	106.12068      	92.35296       	88.83191       	88.45086       	86.00113       	99.31376       	102.56201      	100.53894      	93.71199       	
92.94512       	90.48027       	92.0743        	94.81242       	92.57043       	85.11483       	84.90865       	87.41752       	92.5208        	90.31806       	92.23738       	93.34883       	91.54369       	92.032036      	98.42327       	97.271484      	93.91192       	107.125175     	127.1526       	107.89669      	80.16751       	70.63056       	65.7211        	70.105255      	88.823         	102.784805     	97.42516       	95.43644       	97.294174      	100.32763      	98.700195      	96.472336      	102.84452      	112.103325     	100.30699      	88.171196      	95.53218       	97.87928       	91.3472        	93.84367       	96.994995      	96.689926      	91.394         	98.267746      	97.24675       	91.28397       	94.140434      	91.503334      	93.37825       	94.917435      	90.306114      	88.549065      	94.09583       	90.55614       	83.822334      	90.99236       	90.50025       	90.94816       	90.19868       	89.4966        	95.424446      	94.92343       	92.12176       	96.65494       	91.603485      	94.16812       	93.222336      	87.53389       	86.63778       	90.92077       	92.853195      	87.316376      	79.19502       	88.28329       	96.77039       	98.01108       	89.04256       	94.53083       	97.11975       	88.634964      	88.84883       	92.858406      	92.87465       	95.17587       	96.24454       	98.63046       	97.01423       	94.341255      	95.30319       	116.64534      	101.72193      	96.91084       	100.63962      	104.34405      	103.39607      	103.030045     	105.90327      	108.3119       	98.19012       	88.849785      	
91.74509       	86.8004        	86.59999       	88.85788       	88.34152       	92.26477       	95.7554        	92.01043       	94.68222       	90.160736      	87.963455      	92.38219       	90.71709       	88.40538       	90.37927       	91.47084       	92.68898       	97.15701       	91.94643       	96.54121       	99.9135        	97.32515       	97.82906       	96.475845      	91.68967       	95.83498       	95.10175       	93.46362       	94.68077       	93.649536      	89.466095      	91.46326       	89.302         	97.980965      	96.08941       	84.74059       	91.63136       	94.93621       	93.480675      	95.019295      	94.02449       	97.06156       	96.47567       	94.7128        	96.04383       	94.815506      	93.32134       	94.56866       	93.74849       	92.043365      	93.62822       	94.50495       	96.09896       	93.15748       	88.64734       	91.541         	90.11398       	92.86994       	93.00882       	95.314545      	92.895134      	98.3264        	98.90353       	91.396904      	92.89494       	96.04138       	94.59977       	92.77608       	96.19755       	97.44185       	92.194916      	89.31894       	97.211235      	96.70617       	90.41361       	94.53589       	103.06646      	110.67721      	101.25813      	89.91305       	92.606064      	91.427284      	86.28453       	94.721954      	92.58428       	84.6084        	89.29809       	93.94739       	85.6436        	82.212204      	90.24073       	82.7391        	84.36689       	91.98131       	91.45393       	95.20607       	92.69898       	95.14898       	94.26465       	93.16021       	
94.52602       	90.0019        	94.968956      	99.72625       	95.77739       	96.815056      	96.141594      	95.3459        	91.708176      	97.34482       	96.63991       	92.92472       	97.57039       	96.67888       	95.08394       	100.30104      	97.40386       	97.77117       	93.024506      	95.90064       	93.83085       	94.31943       	98.009834      	95.83167       	93.2637        	95.574844      	93.00228       	100.96115      	97.7967        	98.301056      	99.64596       	98.15286       	96.4804        	98.11735       	97.54481       	97.14514       	99.85265       	95.492966      	98.42554       	95.41926       	95.57943       	97.92126       	97.83884       	94.123856      	96.06821       	94.59022       	97.66776       	94.49368       	94.16483       	94.8079        	93.18283       	94.47326       	91.77743       	91.51569       	91.25676       	93.466965      	94.40669       	90.15834       	93.32219       	95.171234      	91.909424      	92.381805      	92.72145       	94.02803       	90.73868       	91.65613       	93.711426      	88.140816      	90.2279        	93.73088       	94.346016      	89.93196       	91.79556       	94.23526       	91.62041       	93.96887       	91.49462       	92.54947       	95.32735       	96.87404       	95.447464      	94.83855       	92.64279       	88.616035      	93.197914      	90.66664       	92.02772       	99.70337       	89.17011       	88.58302       	92.22398       	92.075424      	92.005356      	90.00732       	102.79476      	101.94874      	101.34688      	95.5105        	85.479576      	78.89969       	
91.32027       	94.75093       	90.867584      	91.62855       	96.215385      	95.23345       	90.22815       	93.80831       	96.35145       	93.51843       	92.665215      	91.19756       	94.34264       	93.98449       	93.24349       	96.381546      	97.54009       	95.805374      	98.486664      	94.858154      	93.32476       	93.92216       	99.068794      	94.64194       	90.819534      	93.46982       	94.41231       	95.62606       	94.79201       	100.59269      	100.13802      	93.17989       	97.22981       	95.80848       	97.35744       	93.53789       	94.336464      	97.860504      	93.677444      	90.133         	92.26672       	96.64183       	90.54175       	90.84209       	96.22031       	96.49389       	91.6838        	97.19799       	95.66827       	94.476395      	90.35616       	98.7399        	96.023994      	86.94238       	83.0485        	88.10311       	96.465         	98.84991       	98.79086       	100.84051      	96.90197       	99.51852       	99.523544      	99.77983       	98.75727       	95.75945       	100.62         	100.66977      	96.30911       	98.127365      	96.8479        	96.21404       	95.302376      	98.02661       	94.76786       	94.251755      	93.41951       	96.57154       	95.86403       	95.0735        	93.58052       	99.37016       	96.5053        	85.04021       	87.83046       	98.1134        	94.16813       	90.451454      	89.402435      	91.85593       	91.780685      	91.5413        	101.17067      	94.36626       	91.07174       	87.718506      	90.41442       	92.68587       	89.53836       	87.14701       	
99.95952       	92.72016       	98.56585       	97.45828       	91.49138       	97.28491       	98.94972       	94.75446       	90.32016       	98.966835      	96.39131       	94.014084      	90.1966        	98.37802       	96.03287       	91.62508       	100.63966      	99.42468       	93.1456        	96.780266      	99.45208       	94.356514      	92.17924       	91.92726       	94.76611       	92.76299       	89.99488       	93.77153       	94.71044       	95.39963       	92.61665       	93.75448       	94.71008       	92.78978       	95.86889       	97.26762       	94.06718       	95.21806       	94.86178       	93.42207       	90.39831       	92.21795       	91.921295      	91.49012       	91.49281       	92.30669       	93.98919       	88.93938       	90.083855      	92.50848       	92.58455       	88.91365       	93.2124        	93.705635      	94.02893       	89.27767       	92.67219       	96.19353       	95.43175       	94.75578       	104.82922      	111.69856      	93.08308       	86.99366       	96.89285       	93.84444       	92.05594       	93.80809       	96.85188       	95.92723       	93.57476       	93.79166       	94.98216       	94.34631       	102.77482      	98.66804       	91.50951       	95.04647       	97.08525       	95.50619       	97.996475      	96.93039       	97.41138       	97.68258       	95.14008       	93.56311       	92.66019       	92.753525      	92.588264      	96.53901       	92.66739       	96.7683        	96.384125      	94.15404       	98.60916       	90.753975      	86.97026       	93.095795      	93.900986      	90.9353        	
98.55892       	97.44466       	93.468056      	96.59403       	101.28735      	97.0891        	97.4958        	100.18736      	97.685295      	98.59777       	97.93114       	102.954155     	97.58967       	95.56175       	98.36933       	98.41366       	95.56559       	96.31542       	99.29546       	100.64234      	94.54101       	95.08375       	96.33024       	94.09122       	90.55132       	97.505875      	95.78407       	91.521736      	90.378265      	95.121086      	96.77162       	92.68506       	90.52601       	98.749016      	93.614975      	95.86988       	94.57545       	94.90472       	96.014084      	93.325195      	93.68082       	93.31902       	92.42712       	89.53255       	97.21196       	95.35743       	90.142426      	95.25286       	96.55865       	91.10899       	91.36633       	96.16614       	96.4985        	92.68625       	94.71446       	95.06823       	92.079956      	93.19467       	97.85756       	98.823395      	94.52522       	94.20124       	97.420525      	99.76921       	92.42883       	94.94056       	97.37875       	95.02185       	89.29848       	90.51457       	95.73168       	93.915565      	91.54072       	93.68294       	95.06661       	87.76518       	87.90457       	92.3619        	92.29843       	90.79513       	96.59762       	96.054825      	93.64275       	88.69333       	91.00838       	96.324265      	92.344284      	84.95128       	93.49246       	94.14317       	77.48907       	76.83553       	93.704834      	94.26562       	96.152374      	96.04039       	94.93159       	95.27454       	91.86136       	86.99983       	
94.32757       	95.40982       	93.1408        	95.08924       	95.87493       	94.63298       	89.50264       	94.71929       	95.17054       	91.52125       	91.51298       	94.62414       	96.16542       	95.263504      	92.47362       	97.26189       	93.2768        	93.69074       	94.26301       	95.329956      	95.343         	94.26835       	92.995476      	90.55415       	90.92961       	92.83294       	91.65482       	92.17966       	91.759796      	89.93794       	93.37927       	90.439835      	92.927605      	94.220024      	90.00749       	92.27617       	90.97313       	92.14803       	93.10999       	90.78798       	91.7356        	94.41942       	92.33404       	90.47978       	93.96998       	91.89551       	93.011795      	89.498276      	91.010704      	92.235596      	91.42628       	89.60542       	88.85241       	87.46629       	85.77154       	85.16847       	82.13411       	93.37953       	100.02027      	92.89562       	95.74584       	92.887886      	91.91002       	89.80104       	94.70246       	93.180435      	92.46428       	95.975555      	92.64331       	91.24859       	89.54988       	95.113365      	93.2703        	93.167816      	88.76995       	92.92432       	93.226494      	94.718155      	92.86858       	88.52856       	93.34283       	89.50644       	93.266         	97.48703       	89.13978       	88.93891       	92.3264        	92.10853       	89.217575      	89.71712       	87.24445       	93.25349       	86.65073       	91.33387       	95.30285       	94.820526      	90.13294       	89.945816      	90.824165      	90.75096       	
97.22591       	92.72318       	97.18905       	94.38143       	98.95899       	92.10261       	93.8446        	94.84185       	94.490364      	92.2651        	94.61923       	89.98282       	91.97445       	94.65189       	97.55432       	99.185005      	93.76716       	95.20104       	93.8112        	92.38257       	94.17726       	96.58363       	91.68047       	85.81278       	87.98182       	87.58499       	94.30384       	87.523476      	92.791595      	92.931366      	89.3545        	94.60983       	97.689125      	91.01632       	91.382965      	97.157455      	92.75987       	90.86937       	91.491646      	97.836464      	95.4165        	89.2728        	90.70787       	94.910774      	104.07152      	98.72264       	92.45151       	93.147545      	90.13311       	92.69618       	98.62564       	92.99641       	92.59677       	91.2671        	102.33527      	94.07647       	87.14418       	94.156044      	99.75155       	92.41031       	88.21758       	98.06159       	98.9394        	103.54222      	110.6051       	97.7714        	86.40712       	90.8512        	93.99716       	94.45588       	91.93078       	94.5489        	92.19836       	97.94301       	95.69921       	114.1421       	103.19071      	86.464096      	84.42895       	94.96532       	95.13255       	88.81983       	92.94255       	91.853325      	91.19355       	91.202484      	91.11602       	91.409706      	88.75453       	86.27577       	88.554794      	90.48283       	90.02963       	90.53309       	94.84049       	92.88954       	93.95129       	88.584564      	86.09009       	86.061386      	
91.784454      	99.178154      	94.64486       	91.51799       	100.521126     	91.85971       	90.7408        	91.793594      	96.20638       	93.70958       	93.62927       	91.417465      	94.79195       	92.33937       	96.814766      	98.09321       	98.21644       	99.13207       	96.36247       	101.46249      	100.80324      	91.44897       	97.16585       	96.5368        	96.979866      	91.061775      	92.204506      	96.94081       	95.009834      	94.08981       	96.03927       	99.025375      	91.76987       	92.06053       	95.65026       	92.256874      	90.13691       	94.77556       	93.94109       	92.41942       	88.20206       	91.56713       	95.38758       	92.0488        	94.638626      	93.252396      	93.06725       	87.904945      	92.80824       	93.25322       	90.65773       	92.21717       	92.330635      	89.54314       	88.79569       	91.51247       	91.78951       	96.945         	105.58334      	103.88628      	95.037735      	91.83981       	93.09148       	96.77585       	91.48511       	90.89029       	94.416885      	94.71978       	93.19568       	90.49354       	95.13856       	95.04569       	93.6777        	95.40377       	96.26573       	96.22372       	95.21855       	96.55831       	100.56066      	97.31062       	100.51359      	100.49576      	97.29697       	98.82049       	100.18737      	105.69141      	104.76103      	100.31353      	100.97086      	107.81218      	106.785164     	103.97172      	106.21736      	108.47647      	113.91903      	115.18778      	118.586426     	96.66051       	68.35613       	41.431644      	
97.71929       	91.60988       	94.04049       	94.19148       	95.81684       	92.5435        	94.863075      	97.438545      	91.82857       	88.82311       	91.893875      	98.65145       	92.05553       	94.66045       	96.01212       	97.12465       	96.85341       	95.95982       	94.986885      	96.592545      	95.35385       	99.013794      	100.56738      	93.731705      	94.98698       	98.397354      	96.119644      	93.83583       	96.149086      	97.27416       	94.88518       	97.32052       	94.148544      	95.316574      	98.6965        	94.03112       	98.83696       	97.99323       	97.56632       	96.46062       	100.26777      	98.02039       	97.74947       	100.66158      	100.39327      	97.12089       	92.93099       	96.96652       	99.00159       	96.150566      	95.587036      	93.84911       	96.51534       	96.208336      	90.88411       	95.69154       	98.61437       	93.01416       	98.69487       	99.73347       	99.96739       	97.727425      	99.51268       	102.33735      	100.65824      	97.28931       	101.90889      	102.929535     	99.66956       	100.87813      	106.688324     	103.760735     	102.989006     	100.82405      	106.303696     	103.06536      	97.43853       	105.99662      	110.9872       	105.59105      	108.20887      	114.08418      	113.677765     	113.818695     	114.30115      	119.26542      	117.40446      	115.28631      	120.25701      	121.41002      	121.1425       	133.10437      	129.6505       	116.79173      	98.55565       	82.22059       	51.6912        	37.913883      	28.895525      	19.236565      	
95.15846       	96.45418       	100.652466     	98.033325      	98.332596      	98.26523       	98.721954      	98.42338       	95.92681       	102.53503      	106.01402      	100.14054      	100.09432      	103.2858       	99.6117        	100.72242      	99.32563       	98.84051       	99.99224       	98.61287       	103.199425     	101.695435     	94.46656       	100.22076      	95.72937       	95.1433        	90.39635       	96.547226      	97.239006      	91.76628       	95.447235      	94.53465       	96.25268       	94.05094       	94.28413       	97.112434      	94.63962       	96.85324       	98.171135      	96.93481       	96.25959       	100.28472      	99.31861       	96.48842       	97.700325      	96.59096       	98.721115      	97.1477        	94.65377       	99.357414      	100.22409      	102.4727       	102.975006     	98.86124       	98.76369       	99.167595      	98.32911       	98.60692       	98.420944      	101.62537      	108.15083      	105.277916     	105.942535     	106.4549       	110.80066      	105.71406      	107.9856       	110.94056      	107.78113      	108.20998      	111.58212      	115.823616     	116.403145     	112.76092      	118.80249      	121.75378      	120.16347      	122.37329      	127.73506      	126.65898      	124.23255      	127.659386     	130.80612      	132.38373      	134.59073      	139.18488      	149.37428      	145.88683      	150.58441      	134.96165      	119.64351      	80.38928       	59.28154       	48.737774      	42.083176      	35.993607      	26.411428      	28.319214      	27.73428       	26.400509      	
97.098015      	97.32543       	97.44685       	95.14926       	98.30441       	96.79616       	97.001945      	96.0916        	99.78918       	98.67742       	96.94467       	101.16459      	100.560234     	96.7968        	98.48785       	97.62073       	98.45862       	98.656006      	100.07404      	100.40886      	101.52923      	100.61885      	102.70059      	98.16489       	99.145226      	94.9026        	95.455475      	102.24764      	96.905304      	98.08127       	98.34628       	102.98915      	102.17652      	100.59511      	99.07187       	101.95239      	102.13384      	102.45128      	105.03878      	101.05997      	98.88472       	97.77518       	102.91849      	100.93173      	99.33708       	100.122635     	102.973015     	103.36553      	102.56078      	101.30916      	99.574776      	100.8945       	103.608345     	105.297226     	103.38823      	101.43009      	103.85832      	102.47414      	104.60367      	108.74974      	109.3527       	114.575714     	115.113686     	116.8116       	120.742294     	120.76737      	118.49751      	119.456635     	123.94225      	124.450836     	124.32814      	124.78722      	128.83534      	128.02089      	127.87273      	132.42805      	137.29845      	138.35452      	138.16019      	141.893        	144.80484      	142.45152      	141.11008      	152.36223      	152.6422       	157.09833      	172.21857      	131.70767      	88.84521       	62.2165        	57.940086      	57.808125      	45.684536      	37.90919       	38.590973      	39.054432      	38.481293      	38.70425       	38.69748       	34.162968      	
100.010994     	98.027885      	97.92479       	99.18567       	101.13753      	100.09111      	98.77375       	100.307785     	97.44127       	97.06998       	100.68229      	100.551926     	96.69621       	96.42317       	101.46512      	99.531906      	94.56327       	97.727715      	97.361824      	99.143234      	101.3027       	96.97338       	98.91291       	101.99687      	95.3189        	99.9078        	99.84871       	95.708         	95.6931        	95.33907       	101.71375      	98.52466       	97.11834       	98.01697       	102.199936     	99.55263       	100.90125      	104.00552      	99.29034       	94.52894       	97.372635      	98.95837       	99.32515       	93.95368       	101.91825      	104.437294     	102.308464     	101.51245      	106.25362      	104.226494     	101.8069       	101.890175     	107.57015      	120.591866     	112.59089      	108.58334      	107.5976       	105.95751      	106.431145     	112.99772      	109.99991      	112.87997      	119.9174       	118.7859       	118.390366     	124.93763      	120.25382      	123.77367      	124.24572      	128.67755      	127.99242      	129.15097      	131.09294      	132.6266       	133.38002      	133.38536      	137.06358      	141.33728      	144.35956      	145.57614      	146.30397      	152.78285      	145.82909      	154.29678      	172.79507      	177.2391       	130.1265       	91.481285      	66.94273       	51.216938      	48.084755      	49.120316      	46.86408       	43.7006        	46.215073      	44.935284      	45.659885      	42.054462      	35.202103      	37.400513      	
98.08932       	99.838104      	96.27595       	97.37239       	98.38635       	97.13669       	97.13695       	97.04595       	94.59136       	95.3874        	95.26215       	99.59607       	99.14168       	95.77215       	96.05645       	100.35539      	98.68566       	102.5643       	103.53763      	101.65028      	101.85173      	104.97656      	104.99878      	105.59594      	101.17884      	99.01216       	93.68858       	98.93604       	100.05366      	94.55937       	99.064285      	101.601814     	100.26584      	98.16314       	102.021484     	105.95995      	101.41405      	100.57118      	102.464806     	100.61974      	100.26517      	102.5008       	103.41664      	100.74151      	100.36776      	100.43505      	101.07842      	103.61662      	103.708        	108.00491      	107.31979      	108.04829      	110.06646      	104.331795     	106.34344      	106.176285     	108.93816      	109.921646     	110.44057      	110.569664     	118.04745      	119.155624     	116.00761      	116.606285     	121.58481      	120.66964      	122.013374     	123.33049      	121.95965      	128.06752      	124.14949      	127.800934     	130.83556      	134.67296      	134.00188      	137.00208      	139.43013      	142.15663      	144.59016      	147.35025      	151.98953      	153.99031      	163.19237      	164.99306      	170.09393      	146.46754      	101.3125       	71.160126      	56.22676       	46.610146      	51.04862       	62.5835        	49.90098       	36.128178      	39.12778       	46.424294      	48.294575      	53.35755       	49.940933      	46.710445      	
94.74562       	99.76396       	101.9882       	100.93102      	99.85639       	98.69453       	103.16631      	96.036285      	94.65934       	100.740204     	99.92535       	97.642426      	99.480995      	99.00265       	97.515816      	95.3329        	100.182526     	100.17836      	97.43704       	101.1853       	100.27879      	102.251015     	99.706635      	99.46772       	97.24548       	95.700264      	95.19713       	92.90252       	96.0843        	96.85855       	96.84765       	101.19658      	99.513466      	106.94983      	98.864746      	92.461105      	101.18004      	98.507286      	94.91554       	98.432175      	101.58638      	102.77518      	98.208336      	98.799614      	100.322525     	99.67308       	98.48344       	102.578125     	104.76395      	103.09724      	98.97005       	106.01774      	103.9561       	105.60947      	104.463264     	106.84724      	105.91304      	105.39091      	110.16098      	109.91503      	111.3285       	106.745155     	108.71286      	116.16701      	118.27222      	117.99565      	123.58097      	124.98754      	124.27943      	125.42243      	131.16896      	126.96838      	128.62318      	134.60965      	135.22496      	135.771        	137.04161      	144.39508      	144.5135       	142.40674      	149.62607      	161.15921      	158.46753      	160.15091      	175.54373      	137.67972      	94.707695      	74.73596       	58.62624       	45.795246      	42.820564      	43.856136      	48.196655      	46.453598      	47.909492      	49.227055      	47.642765      	51.235256      	50.087734      	46.830444      	
97.29138       	100.533455     	96.13167       	95.13924       	98.15197       	101.622574     	96.82381       	98.00087       	101.28105      	98.05401       	98.34991       	96.34661       	97.52539       	96.75648       	96.63322       	97.351845      	96.54324       	94.996086      	95.31227       	94.82674       	95.23551       	97.52123       	93.47076       	95.43692       	95.99757       	96.29599       	98.15109       	95.76778       	93.51127       	93.95268       	101.640305     	95.0931        	120.24738      	108.60478      	90.783325      	75.60367       	87.74517       	99.374756      	96.53292       	90.0758        	90.93787       	100.83875      	99.15163       	98.41824       	100.50066      	103.03116      	102.738144     	106.09374      	105.05501      	106.81238      	103.74996      	105.728        	108.026566     	106.68483      	107.430595     	111.39952      	110.78924      	112.772964     	105.99869      	109.62383      	117.66713      	113.70044      	116.19704      	120.208015     	119.311226     	121.16971      	123.452385     	123.78175      	124.13768      	129.64183      	132.33226      	128.56078      	132.71397      	137.81786      	132.94753      	133.70651      	132.14948      	142.4773       	137.36737      	140.58368      	146.29086      	151.50743      	153.25034      	157.55307      	172.69012      	148.4389       	103.73893      	88.8278        	75.91076       	56.95621       	46.372597      	48.542183      	50.622944      	47.76808       	47.019375      	47.39093       	50.838867      	52.845604      	51.441307      	46.78323       	
98.41243       	98.268196      	99.65019       	100.97879      	97.30668       	96.68775       	94.80734       	98.529915      	99.20637       	94.595146      	94.83573       	101.20806      	95.988205      	94.45397       	97.95159       	98.956665      	98.188194      	98.39269       	99.52284       	100.52161      	96.35153       	97.40719       	98.06384       	101.099625     	97.29525       	101.62041      	103.9866       	98.356705      	99.61239       	99.294876      	99.52031       	99.60324       	98.017624      	99.81339       	103.06652      	100.83101      	103.32397      	104.19108      	103.51046      	102.11292      	102.36018      	103.75239      	100.2289       	102.08395      	101.88435      	108.70039      	107.853584     	102.78382      	105.24186      	105.59624      	105.9705       	104.35214      	109.789024     	106.24677      	107.43977      	107.19697      	111.95395      	112.3538       	107.69184      	114.68883      	114.93825      	116.19459      	113.87352      	118.795364     	120.92962      	121.368706     	121.60559      	118.79003      	122.75444      	121.155106     	120.11133      	119.53085      	123.72728      	125.40669      	128.41582      	126.75679      	134.82411      	133.86253      	131.46579      	139.52258      	144.0953       	145.95175      	147.38483      	153.43985      	168.60892      	159.3185       	111.537155     	92.09831       	76.0148        	52.786358      	45.628788      	52.24271       	54.73456       	64.34858       	53.37561       	65.228905      	50.187675      	47.88594       	46.871635      	44.160355      	
97.22142       	96.181885      	94.272964      	96.37025       	96.308685      	96.29644       	98.00037       	100.66065      	99.47054       	96.20741       	99.22728       	100.23271      	95.99401       	97.78605       	96.36975       	100.41157      	96.483696      	96.74669       	101.27972      	100.175735     	95.922         	91.69545       	100.32297      	96.49728       	95.68074       	98.7554        	102.04622      	94.429756      	92.52999       	92.58809       	94.78796       	90.86637       	91.33346       	94.745476      	98.4492        	94.791985      	94.37249       	95.4086        	96.62902       	93.32579       	95.79728       	96.83357       	93.041916      	93.63414       	98.023674      	95.27808       	96.13543       	98.8942        	97.22784       	97.052315      	96.009995      	97.5793        	106.00268      	101.65351      	99.54283       	120.13443      	119.7238       	126.47911      	111.727936     	110.28377      	114.02001      	112.545746     	116.970566     	119.513756     	117.53291      	115.04804      	121.617386     	119.46375      	118.448235     	121.89385      	126.03612      	121.91728      	124.18872      	131.77838      	136.09984      	131.28432      	134.00891      	135.52965      	139.23866      	139.19803      	146.8383       	145.59157      	151.19475      	158.37726      	162.86032      	165.57886      	122.548904     	96.232216      	76.705025      	59.614014      	48.613186      	46.485184      	47.274723      	49.92958       	49.113792      	50.503807      	50.37051       	48.010105      	45.88352       	45.434483      	
99.582         	95.3664        	95.0829        	96.22205       	99.69364       	96.79269       	95.819145      	102.75487      	98.96668       	95.13578       	99.39655       	102.01758      	97.12397       	93.8826        	98.37566       	99.68593       	95.78913       	95.02426       	100.857834     	99.74112       	92.3956        	99.436714      	100.412895     	98.73164       	95.72425       	102.5374       	103.79227      	104.47555      	97.26649       	98.757416      	101.14393      	99.82617       	99.30943       	103.62535      	99.66295       	98.67803       	103.17667      	108.69768      	108.158394     	106.31499      	121.97175      	111.38886      	105.86792      	108.16743      	111.96274      	112.61738      	114.438934     	113.65052      	114.195305     	120.601944     	118.89273      	119.00443      	122.66597      	126.393974     	133.97794      	133.05379      	118.30113      	77.85744       	49.680656      	43.95894       	54.25379       	72.12126       	97.104546      	120.60584      	124.115        	120.62068      	121.99137      	127.39709      	126.08139      	123.79383      	128.10927      	129.932        	131.33794      	130.1613       	133.32076      	134.42209      	132.58507      	134.46432      	140.25316      	141.92851      	144.5233       	148.05598      	154.75633      	159.34897      	163.50502      	178.52174      	143.95485      	98.13292       	73.8047        	59.933037      	47.76292       	45.116665      	52.26212       	53.02971       	47.823467      	44.146305      	45.770847      	48.999924      	48.82095       	48.778137      	
98.30685       	102.91314      	98.00853       	99.564415      	100.955        	101.8774       	99.89357       	102.37918      	102.10887      	105.19679      	101.22822      	104.46012      	105.61817      	102.37615      	100.80505      	101.779945     	103.57156      	102.31361      	102.04447      	103.863235     	107.039154     	102.36925      	104.77239      	108.29219      	105.12575      	98.55209       	105.07027      	108.22838      	103.96322      	102.85753      	102.950806     	104.29068      	107.098175     	108.15773      	109.1751       	111.73979      	115.339066     	114.36547      	111.88699      	114.37709      	115.42437      	117.64002      	114.847336     	120.6099       	123.58492      	124.992134     	128.55856      	135.22264      	133.62099      	141.43295      	149.00952      	143.60768      	147.98048      	98.083084      	65.50346       	54.317528      	49.39202       	33.703186      	24.823656      	10.003372      	15.011651      	22.309824      	45.15442       	108.573326     	117.35572      	118.86463      	117.897675     	119.67443      	124.579384     	120.90165      	124.36275      	122.88886      	123.3481       	130.79716      	128.9039       	131.78094      	132.2377       	134.88043      	134.83284      	139.78706      	142.5827       	144.83128      	147.9235       	152.0945       	159.39796      	172.25284      	152.15056      	108.723785     	91.256996      	68.80535       	51.206726      	46.460087      	43.950947      	41.70215       	41.350517      	49.192055      	52.4786        	48.659523      	46.00498       	45.110638      	
100.03758      	101.51761      	99.14212       	98.30542       	109.582115     	101.91117      	94.03268       	99.21614       	102.74855      	103.68599      	105.31942      	100.48066      	96.7021        	103.63712      	109.0508       	111.072586     	109.90388      	112.107704     	111.332146     	116.98983      	113.24528      	114.815704     	116.920166     	112.178825     	115.226265     	111.72513      	114.84753      	114.4366       	113.81346      	112.81551      	118.32619      	123.78566      	118.01305      	123.744        	125.095146     	122.9649       	125.07325      	125.79984      	129.35687      	131.33298      	137.13483      	131.7305       	136.311        	139.26622      	142.8297       	143.35413      	150.93964      	143.26913      	113.13378      	87.995476      	70.18735       	60.518826      	49.921528      	44.618656      	31.385765      	24.682234      	20.638926      	18.027906      	16.988697      	17.006962      	16.162308      	20.554302      	39.83227       	87.05736       	121.33066      	120.83293      	118.78657      	119.42382      	121.70708      	122.32502      	120.50724      	121.210014     	124.02907      	129.1027       	127.78673      	129.89764      	130.2021       	130.5711       	131.99994      	137.88358      	143.61258      	139.8394       	144.24837      	149.68631      	151.4913       	159.66685      	170.91618      	124.00646      	97.61478       	72.34832       	54.640404      	54.164486      	50.983738      	49.789482      	53.389896      	56.647564      	59.514725      	59.290184      	53.64297       	51.112038      	
100.20977      	105.5664       	104.46988      	102.26822      	103.47529      	107.86132      	106.44484      	104.202034     	107.396835     	108.90823      	106.85979      	105.88393      	107.09378      	107.82658      	109.58055      	109.05141      	111.542366     	110.77215      	103.94927      	113.86678      	121.7898       	117.546265     	117.99832      	117.80458      	123.54427      	119.68971      	121.2068       	124.00455      	121.59969      	123.96031      	125.38709      	129.66545      	130.64508      	129.13547      	133.91057      	137.5395       	137.65855      	140.44403      	149.32018      	149.24245      	148.28815      	156.10768      	167.86058      	130.4396       	117.95438      	100.648506     	83.5203        	69.0181        	57.44949       	49.48383       	46.67183       	41.079033      	40.195843      	41.001236      	41.020466      	36.800278      	34.77166       	31.825996      	27.877918      	17.229992      	22.001314      	28.110218      	46.55811       	79.49672       	114.09193      	121.06196      	113.67964      	118.130974     	121.272575     	122.37746      	121.47751      	125.41243      	130.05055      	127.67745      	125.75046      	130.52902      	133.22003      	132.49771      	129.98143      	135.27109      	135.86852      	141.06976      	143.92538      	152.73407      	153.87825      	159.74266      	174.40454      	122.45527      	88.04927       	76.29619       	61.510777      	52.146458      	46.659885      	49.36768       	47.66487       	49.85994       	52.369675      	50.199055      	46.717632      	47.025303      	
105.9628       	105.70285      	106.25695      	108.39934      	110.70291      	108.35322      	109.32712      	109.58788      	112.93361      	113.06322      	111.31188      	107.12819      	114.42796      	112.79325      	114.62492      	118.524216     	117.504585     	111.98426      	117.367134     	123.91231      	122.69432      	118.6803       	125.82573      	127.22548      	127.61715      	127.61284      	133.52037      	133.98578      	128.5619       	133.82321      	138.6437       	135.80348      	137.68655      	142.0489       	148.6774       	144.68642      	152.91217      	160.48544      	170.3278       	141.7056       	123.24667      	103.25031      	80.35577       	71.47223       	64.28606       	52.75807       	46.379814      	45.250298      	46.214394      	41.46306       	38.738728      	41.0979        	42.80133       	33.03178       	29.937635      	31.791395      	30.580172      	17.086882      	21.949474      	18.540787      	15.714596      	13.462773      	48.066425      	75.329834      	105.86361      	116.37774      	119.97643      	120.594536     	119.54256      	120.74125      	123.97962      	122.26515      	129.22028      	131.65945      	130.04977      	131.81688      	138.13426      	134.97191      	135.46098      	139.51428      	146.41953      	149.72377      	153.19229      	158.66818      	166.66168      	173.15907      	177.3964       	138.0029       	102.876205     	89.096306      	74.84508       	59.819534      	54.255775      	57.37277       	56.550423      	57.59585       	59.480892      	62.442852      	62.241726      	61.5399        	
105.11237      	109.764275     	116.510216     	114.46259      	112.647964     	114.656944     	118.139565     	117.12701      	118.96837      	118.11811      	123.096466     	121.840645     	119.87462      	124.92794      	125.91605      	120.7476       	125.973076     	126.70523      	129.16978      	127.87021      	132.54797      	136.70534      	136.29816      	135.63963      	141.51132      	148.82129      	146.089        	144.15822      	151.86427      	149.36482      	155.5851       	151.89606      	157.51172      	179.16618      	172.07162      	126.62899      	103.17179      	97.72409       	86.93197       	75.05318       	68.213615      	58.80372       	60.005577      	58.642803      	53.894855      	51.845215      	49.432003      	49.48588       	49.1623        	50.358055      	46.536507      	43.657043      	41.875427      	42.27474       	35.066284      	31.386614      	30.838375      	28.395988      	22.89502       	16.705582      	21.603598      	30.276745      	45.939865      	64.82268       	108.066925     	114.28951      	110.789474     	117.8258       	119.71646      	117.5542       	119.07293      	124.05327      	123.03073      	120.10484      	124.90296      	129.89041      	127.29305      	129.3008       	133.98831      	136.30132      	138.3101       	141.46227      	146.0148       	148.07906      	152.56503      	159.5858       	176.0032       	159.39096      	108.75446      	86.54094       	71.097         	55.330544      	51.45795       	56.265305      	57.017334      	55.71599       	60.625202      	61.053406      	54.29636       	49.372295      	
108.712296     	116.78894      	119.643486     	118.78887      	114.47037      	119.42924      	123.7695       	123.06912      	123.858734     	122.33809      	123.108925     	126.272675     	127.615974     	130.7964       	128.47687      	130.36339      	130.97784      	130.60175      	135.92792      	137.4077       	140.81268      	142.90872      	143.62865      	150.23947      	151.9315       	154.1607       	157.85101      	160.08894      	160.52124      	166.04471      	150.58333      	156.40009      	120.90282      	97.527534      	93.55709       	76.84293       	68.54406       	64.88461       	62.68583       	59.39931       	59.394108      	58.950657      	58.290012      	55.31578       	52.601627      	55.79149       	52.908123      	49.243965      	47.452095      	51.508907      	46.56573       	46.15905       	45.252872      	40.919704      	35.751602      	33.82453       	30.326496      	28.689035      	19.065958      	19.684025      	18.465223      	12.31111       	14.054236      	46.925125      	97.80252       	114.72598      	118.55555      	120.696915     	119.16594      	117.55924      	121.74626      	125.89784      	123.900276     	124.11844      	125.97853      	131.39642      	130.04128      	131.61935      	133.77267      	138.18987      	140.6058       	142.39871      	153.24338      	153.16144      	160.7028       	165.36276      	175.27892      	176.22987      	124.00184      	98.66147       	75.0493        	56.33756       	53.29796       	48.36668       	48.383545      	50.23563       	51.86237       	53.102215      	51.061607      	49.22773       	
107.420044     	119.188385     	119.997444     	118.3919       	122.159904     	121.33885      	122.07483      	124.651985     	124.38993      	129.98375      	128.36723      	128.99884      	133.21942      	135.77255      	140.69107      	141.0486       	145.60016      	143.43083      	144.39967      	150.66486      	156.77563      	157.57712      	161.26964      	166.50113      	172.69978      	172.77383      	184.90266      	191.66693      	140.27748      	102.900375     	87.5406        	79.707886      	76.586975      	67.62947       	68.180145      	65.19711       	66.26435       	67.26137       	67.5237        	64.630714      	60.98635       	59.36208       	60.73403       	57.924297      	58.912876      	55.486794      	54.962627      	55.469765      	50.894833      	52.355103      	51.65306       	49.30621       	45.253197      	44.858944      	43.043396      	37.52385       	35.747486      	32.923786      	33.79675       	28.77383       	24.143076      	21.882229      	27.242075      	46.719223      	91.683556      	119.32348      	114.27156      	115.75912      	115.316696     	115.824615     	116.70058      	116.66181      	118.76953      	119.16932      	121.36854      	124.87397      	128.56746      	123.946724     	126.73697      	131.49196      	134.6894       	132.22168      	142.81369      	146.04591      	149.2349       	149.71397      	151.49936      	171.0595       	135.76164      	98.12404       	84.69744       	68.98553       	47.361977      	49.7865        	48.0275        	48.351524      	47.70017       	46.60015       	45.11133       	48.972572      	
113.41979      	119.935234     	121.75485      	120.911385     	122.56489      	126.267296     	124.27333      	129.2754       	131.9567       	130.9756       	134.36732      	136.13701      	136.42076      	137.23814      	136.50731      	138.88048      	144.8983       	144.88434      	146.70769      	152.62631      	151.08737      	158.17648      	164.2465       	162.71962      	166.45998      	196.1227       	166.64122      	122.549835     	89.445404      	67.93218       	69.28217       	68.30224       	66.54272       	69.9265        	67.64746       	68.07968       	66.1221        	64.494934      	65.63577       	64.8448        	66.331215      	62.90238       	60.837307      	61.15121       	60.698914      	60.18145       	56.064377      	55.799843      	58.30091       	55.23304       	52.235416      	53.17939       	51.965645      	52.070522      	46.66612       	45.198547      	37.73795       	40.63793       	38.70674       	38.307686      	25.715956      	17.841732      	29.75112       	40.301144      	66.304756      	112.43147      	124.86616      	118.38465      	114.38163      	119.03612      	120.158585     	121.58212      	125.48717      	129.78908      	128.62276      	126.46415      	127.065834     	129.45822      	128.86491      	130.24835      	133.28636      	138.32169      	139.9439       	144.9597       	150.42447      	157.46828      	159.93994      	177.26651      	146.61925      	106.12991      	83.16183       	71.25641       	54.559223      	50.01402       	49.165627      	54.029106      	60.047626      	52.126022      	44.32518       	46.04476       	
117.22995      	119.17132      	121.045364     	120.81953      	121.895004     	124.33698      	127.1897       	130.50336      	133.67319      	134.07985      	131.96152      	135.69298      	135.56702      	141.22394      	144.76448      	144.22028      	145.17726      	152.04689      	157.48041      	159.04483      	161.90363      	168.0693       	174.0761       	179.98253      	197.06557      	171.83586      	122.76254      	95.0212        	73.38347       	67.72145       	67.36978       	66.57646       	68.08068       	70.31504       	66.83021       	65.37367       	67.394455      	68.5582        	65.3329        	65.17736       	63.987366      	64.34649       	64.58399       	63.56158       	61.65231       	61.326824      	57.65538       	58.429512      	57.24618       	54.81507       	55.769333      	56.410286      	52.039997      	51.845303      	48.352333      	45.69367       	42.115944      	36.209103      	29.905344      	29.110577      	23.464699      	20.948072      	16.510958      	23.103992      	59.114933      	105.93556      	116.141266     	117.739494     	121.446304     	119.32303      	121.50461      	122.04972      	121.228424     	121.21472      	124.31033      	126.62638      	128.06973      	133.11253      	131.69443      	134.06516      	138.38283      	141.54065      	142.90659      	146.71065      	151.56174      	151.34816      	155.58041      	171.1818       	164.8955       	113.53877      	90.67529       	73.404305      	55.960857      	48.768734      	54.09383       	56.69434       	62.5415        	60.89399       	55.589737      	54.338657      	
122.127754     	128.13248      	125.68442      	128.4018       	133.87321      	131.11548      	130.02802      	134.42592      	138.42947      	137.19296      	137.91351      	140.49814      	144.13016      	147.34225      	146.98451      	151.74612      	153.11183      	151.72159      	157.70825      	155.04001      	164.19789      	174.06766      	174.03531      	177.43748      	196.79225      	157.22934      	126.811844     	109.14755      	85.603424      	70.87816       	72.773346      	73.37873       	68.59349       	71.998375      	73.4298        	73.38939       	72.00045       	73.07946       	72.99018       	67.35295       	68.299484      	69.16881       	65.47923       	61.597664      	64.38056       	64.078476      	58.804504      	57.779316      	60.01109       	58.781876      	58.096645      	57.317112      	53.947258      	48.68652       	46.182472      	39.36065       	41.940506      	32.91848       	31.665243      	29.436785      	16.636051      	14.231461      	12.593975      	17.500668      	52.54509       	96.56983       	115.562126     	116.69243      	117.46655      	121.80953      	120.41012      	120.8317       	122.39177      	119.92735      	124.61552      	126.28122      	125.13842      	127.638565     	131.36269      	134.04643      	133.53902      	135.58763      	139.86456      	146.98596      	146.8854       	146.49228      	152.47931      	163.01064      	169.19664      	117.10163      	87.43371       	80.15787       	65.55358       	49.08085       	48.680862      	50.13589       	51.828556      	50.985313      	49.423435      	51.750935      	
123.76093      	120.5681       	123.88066      	128.47092      	123.843315     	127.74061      	131.88518      	134.17006      	134.00092      	129.44469      	139.04636      	139.14857      	135.6297       	142.65672      	147.22914      	145.39139      	145.54376      	151.32199      	152.61626      	153.74583      	162.351        	167.28615      	172.27727      	181.50941      	192.35175      	147.83957      	113.77989      	98.175446      	86.2288        	69.61885       	66.67296       	70.136154      	69.476265      	70.62809       	69.467606      	70.24219       	73.46448       	71.806984      	69.450775      	70.83613       	70.10855       	71.38182       	68.52389       	68.8932        	64.3695        	63.83238       	62.233006      	63.405678      	58.510857      	58.48511       	57.804913      	51.98077       	52.933918      	49.81561       	47.650444      	41.637627      	43.020344      	38.47551       	36.68332       	30.86845       	25.109566      	20.814688      	13.683538      	15.286813      	30.142784      	77.89818       	117.997574     	121.638145     	123.61763      	120.623085     	112.53486      	120.66505      	124.09209      	124.266815     	125.365265     	127.18898      	130.10468      	124.66798      	129.39188      	132.404        	134.45303      	137.28065      	138.06046      	141.04239      	145.99081      	146.12767      	151.1228       	160.41995      	173.5422       	138.2943       	96.6821        	76.82743       	57.035156      	49.61645       	54.01393       	58.26458       	61.22098       	61.407932      	55.780815      	52.746525      	
119.81276      	120.207924     	120.21319      	128.41347      	122.25926      	117.705        	128.83977      	127.40394      	128.16005      	131.14513      	131.42633      	132.01515      	131.56407      	137.84488      	146.09499      	141.52054      	136.57748      	155.08064      	153.61632      	146.14711      	159.50006      	165.49574      	169.21841      	169.52353      	191.38585      	161.27434      	127.685616     	101.452515     	84.51094       	69.861176      	67.3249        	63.346794      	72.51073       	74.0026        	73.0591        	67.880356      	72.962105      	67.09224       	63.201828      	66.02019       	69.202965      	64.996445      	65.70088       	62.86914       	58.402573      	57.839638      	58.6475        	56.542034      	52.98047       	54.797623      	55.877068      	50.514786      	47.5264        	52.397316      	62.350685      	50.991573      	49.068035      	51.997604      	50.802437      	43.090534      	36.251877      	23.620932      	16.722084      	16.958057      	33.03991       	69.24222       	113.07056      	117.01647      	120.53728      	122.17813      	120.200554     	121.60655      	122.04744      	121.12867      	119.505325     	122.92027      	130.2516       	130.4328       	128.06201      	130.67593      	135.80157      	136.16135      	139.12933      	144.87083      	149.21469      	154.4006       	156.4356       	161.76378      	175.31909      	130.50327      	86.96773       	79.17897       	74.2708        	50.09388       	52.397198      	61.48262       	51.766254      	45.41695       	48.179543      	51.79805       	
119.25977      	121.60104      	125.80193      	127.40502      	129.74854      	126.85369      	125.4264       	128.93553      	133.63351      	136.32211      	136.29503      	139.3124       	137.08047      	139.59044      	142.1181       	144.50565      	147.60034      	147.10425      	148.50838      	159.3779       	161.13475      	163.94304      	168.13455      	178.47925      	190.75233      	183.40485      	130.58876      	111.18966      	96.02071       	74.29501       	68.245804      	70.525444      	70.62986       	67.41633       	68.57663       	71.1123        	66.88941       	68.243484      	66.813934      	71.53975       	68.069496      	62.70099       	68.56484       	64.43013       	63.04824       	63.7196        	60.54418       	58.666935      	59.41223       	56.743465      	54.366142      	51.775314      	48.25547       	45.09993       	49.667824      	42.850224      	34.70703       	26.874168      	38.806087      	30.014027      	24.841675      	14.4608        	21.343508      	16.690767      	22.582933      	55.328434      	99.32742       	115.81833      	117.57918      	120.36437      	115.360115     	117.9371       	120.93035      	117.63777      	118.04515      	123.12033      	127.36833      	124.83409      	126.75268      	131.69124      	129.74387      	130.40866      	136.45853      	140.08334      	142.31866      	148.01967      	153.86227      	159.24985      	168.72057      	150.00772      	115.82154      	86.080734      	69.02204       	52.236614      	36.51395       	47.85239       	53.77181       	58.778023      	56.16141       	43.980434      	
127.93442      	123.01942      	120.182625     	128.61813      	124.285286     	124.098755     	124.480385     	127.41403      	129.7023       	128.37668      	131.40543      	135.88011      	135.32698      	132.74205      	144.59488      	143.30795      	143.1233       	144.78853      	151.40675      	143.74933      	154.82176      	162.40309      	168.93419      	180.00548      	187.08568      	196.64833      	144.8732       	110.02448      	95.20075       	76.71061       	69.345535      	66.883255      	73.28373       	68.52965       	72.64477       	71.35589       	72.991875      	66.32946       	67.60552       	67.427475      	70.73812       	68.93207       	70.59891       	67.69788       	67.20157       	63.134945      	63.350277      	61.221897      	60.708454      	62.04578       	54.672543      	58.619423      	54.779457      	54.24971       	51.402103      	39.454758      	46.43811       	49.6819        	45.95197       	30.965126      	30.191965      	24.219753      	20.663565      	26.920353      	28.534227      	56.263733      	94.886154      	116.59355      	118.326096     	116.96465      	117.24565      	122.684074     	121.867676     	116.326385     	120.3919       	122.38319      	120.14168      	120.07576      	122.87719      	125.267975     	127.84637      	128.28346      	134.36934      	138.60306      	139.93857      	148.13982      	143.57756      	149.53738      	159.15237      	168.35207      	109.357864     	76.80351       	68.182976      	65.99868       	48.379673      	41.79046       	50.901707      	48.84796       	40.300903      	43.175053      	
36.345314      	61.81234       	95.7508        	121.68787      	122.71365      	127.18132      	124.625725     	127.18482      	134.30501      	130.28423      	129.69017      	132.66821      	132.57405      	135.45518      	137.98383      	140.9744       	143.35806      	142.35287      	151.92299      	153.39914      	148.76064      	154.53882      	166.60524      	174.97711      	179.86865      	200.18417      	153.60216      	112.19901      	91.050125      	73.30337       	65.10959       	66.70834       	68.095345      	68.44861       	76.41579       	84.491325      	70.02693       	56.634575      	64.63143       	68.0659        	71.27875       	67.08691       	71.374016      	63.581036      	64.02538       	66.03055       	63.991524      	62.777325      	62.31928       	60.087         	60.775032      	58.536556      	58.282536      	57.083008      	56.428318      	57.83913       	69.3319        	57.315926      	28.585106      	20.756828      	30.933481      	24.427341      	15.82786       	24.059216      	28.280714      	50.49064       	92.43283       	116.64135      	121.26649      	114.523        	120.81259      	121.10755      	115.224075     	119.9262       	121.68274      	121.4491       	120.294846     	121.552734     	126.52973      	125.92364      	127.8396       	132.25896      	132.46655      	135.69073      	137.64984      	141.76062      	146.20712      	146.33759      	157.39487      	169.17259      	131.29938      	97.98006       	82.66893       	67.75113       	44.485516      	47.72894       	50.988846      	53.995274      	55.974632      	51.841698      	
14.6244135     	26.854908      	49.55558       	99.50923       	117.86116      	121.94744      	125.526535     	125.07227      	127.653564     	129.0171       	130.93674      	130.67673      	131.61295      	136.074        	139.9623       	139.19217      	141.63168      	146.36545      	146.88626      	148.42845      	154.35394      	160.1225       	162.21425      	169.451        	181.84744      	190.09831      	167.99132      	124.21497      	107.21997      	99.73011       	77.11189       	71.241554      	70.3496        	73.16695       	69.36187       	72.00546       	71.115105      	66.02379       	72.32071       	69.40353       	69.20782       	67.29707       	66.34462       	65.120636      	63.23801       	63.90757       	65.10413       	64.400566      	58.6201        	57.642735      	60.634834      	61.16703       	55.92391       	53.927475      	60.96334       	48.200336      	43.131523      	46.767155      	40.936253      	34.795765      	33.47427       	35.611076      	27.725843      	15.2934265     	26.387175      	48.76906       	84.481705      	112.46094      	119.46516      	118.75562      	114.94661      	115.228386     	121.56015      	121.02275      	117.718864     	120.544525     	126.06434      	122.19191      	120.53619      	127.6742       	131.83163      	129.70384      	128.64728      	134.11266      	137.38527      	133.58522      	141.8214       	148.36447      	149.54507      	162.43182      	140.54095      	107.821846     	73.21468       	53.44913       	46.883583      	52.967392      	53.36792       	54.254623      	48.363914      	43.333637      	
16.169025      	20.247904      	45.803818      	94.13285       	117.73614      	126.76031      	125.79729      	129.22694      	126.01917      	126.91206      	135.52199      	124.345535     	130.74007      	134.02736      	132.91206      	139.29875      	143.93297      	138.87479      	139.88896      	150.68275      	156.73813      	155.02164      	156.18758      	172.93712      	181.06638      	187.21565      	194.25471      	153.29477      	125.52079      	106.047195     	86.48402       	74.19059       	77.67492       	72.0086        	73.20969       	76.27441       	72.983025      	74.58021       	79.29152       	76.044785      	67.69675       	70.46559       	72.48214       	69.59471       	68.43229       	69.71892       	71.42409       	69.55746       	63.60234       	62.037457      	61.70385       	62.595055      	58.982883      	56.43552       	51.29256       	46.012638      	48.31755       	45.289944      	35.067574      	29.271471      	27.95285       	26.951897      	20.544676      	12.345295      	15.323406      	22.13457       	51.864         	103.447784     	117.90541      	116.387505     	113.092445     	117.76855      	118.353355     	114.44906      	116.996544     	120.20707      	122.11178      	121.868515     	123.4659       	125.68636      	126.15064      	126.52593      	132.6173       	133.68904      	131.40942      	135.41458      	146.08112      	145.50526      	147.13388      	166.63272      	145.66428      	91.16673       	71.181206      	63.053165      	52.976997      	49.099243      	50.949608      	56.530434      	51.052406      	46.558804      	
15.366967      	21.524181      	34.123917      	80.63098       	113.33168      	113.86852      	119.683525     	116.96252      	117.34453      	122.20743      	117.136795     	126.354        	126.72431      	130.60464      	129.55461      	131.34091      	149.14845      	137.50597      	136.8769       	147.48691      	144.38686      	153.81303      	158.16031      	161.1709       	169.37955      	178.31609      	193.02176      	164.33713      	131.68967      	102.53187      	84.24854       	79.23474       	74.51044       	69.740974      	71.67557       	75.80612       	74.76141       	71.929344      	69.19184       	72.85304       	73.104576      	69.090866      	68.79671       	71.790596      	67.2071        	64.02909       	68.405525      	65.431656      	59.567955      	60.662663      	61.772766      	58.57736       	56.486187      	54.936256      	53.796654      	53.22838       	47.031296      	43.80627       	43.30211       	40.503742      	27.568138      	31.08855       	25.264767      	6.7454343      	5.360856       	9.745482       	27.99662       	87.450836      	115.15869      	122.46004      	113.06805      	113.34338      	119.80617      	122.37314      	118.55932      	122.32165      	127.65466      	127.92044      	124.9449       	124.61659      	135.73718      	130.53677      	129.50484      	136.2584       	142.40663      	140.18167      	141.43282      	151.95212      	158.30031      	165.53241      	156.32484      	122.53601      	89.42644       	62.84941       	49.948845      	50.307766      	52.29012       	48.65629       	48.23672       	47.26755       	
11.559426      	36.05701       	40.559933      	69.97789       	108.02846      	114.07301      	121.07198      	122.06014      	126.768105     	126.252556     	119.80739      	131.5972       	145.04355      	133.32233      	133.04376      	151.62914      	148.56094      	130.71156      	139.089        	146.40616      	152.83745      	150.35799      	151.24615      	160.75204      	167.014        	168.18962      	181.90228      	174.40196      	122.37408      	93.582924      	79.65834       	73.58665       	71.872025      	67.796104      	71.7559        	74.55339       	74.22193       	69.50099       	69.783714      	73.42394       	72.70055       	68.32512       	70.29335       	71.14379       	66.114655      	68.4696        	70.98058       	64.27602       	63.617935      	66.00203       	60.66224       	56.690002      	59.105045      	56.086365      	58.243687      	49.552082      	49.274734      	50.490658      	41.77369       	33.40343       	32.370422      	32.47683       	23.156956      	14.441587      	18.360794      	18.926304      	29.83773       	73.63288       	112.73909      	116.743515     	111.858284     	112.89954      	111.935394     	118.38764      	116.0488       	119.922165     	123.73286      	120.08399      	120.12276      	127.27139      	123.76775      	118.82585      	126.1921       	133.36131      	134.86005      	135.79065      	143.36746      	142.23058      	146.46393      	147.92729      	161.85428      	124.21803      	92.52872       	79.345695      	61.616306      	51.75675       	52.375862      	55.668804      	51.814636      	48.117924      	
25.910643      	24.767378      	29.511217      	63.41675       	110.58172      	120.002396     	111.806305     	122.06714      	125.669716     	130.57693      	131.06544      	129.60912      	130.3657       	135.78027      	135.89682      	140.0388       	142.72884      	149.46376      	142.32138      	149.71556      	154.91049      	158.19838      	162.6731       	164.35715      	168.06566      	177.04343      	191.75365      	190.62856      	131.60025      	117.20259      	100.421265     	75.25381       	68.419174      	71.33208       	74.87957       	75.90009       	74.745834      	74.87037       	76.313156      	70.81576       	74.16364       	73.97813       	70.009155      	67.814926      	68.883354      	70.26966       	67.11698       	62.196125      	63.795296      	64.30014       	53.013687      	61.284702      	59.99891       	57.825684      	49.019596      	49.976276      	50.18286       	47.865105      	43.958843      	42.2626        	35.512302      	32.717316      	26.911407      	27.200489      	25.298988      	17.206785      	28.577248      	73.178185      	108.25385      	112.98274      	114.0351       	115.57499      	118.785034     	120.610725     	115.99333      	116.11276      	110.67966      	116.51081      	120.53643      	120.403915     	121.09576      	121.833405     	128.7835       	127.56104      	134.23277      	131.56361      	138.58046      	141.9624       	141.18727      	148.4358       	171.17519      	143.54716      	98.66954       	80.32287       	63.025574      	46.712498      	47.717922      	45.598614      	41.22332       	42.008175      	
31.154766      	36.023724      	34.002136      	54.388504      	87.759384      	118.08207      	113.228516     	121.175285     	123.696846     	124.77998      	127.37763      	130.82562      	132.64993      	147.15334      	136.23404      	123.22356      	134.83438      	145.08282      	142.33652      	143.6793       	145.8225       	145.90646      	150.00629      	158.53062      	167.18451      	171.61133      	184.93036      	200.17064      	150.3057       	114.93797      	98.62747       	76.153244      	69.22079       	75.18905       	70.466354      	77.410805      	73.03281       	69.628975      	73.3507        	79.50411       	76.62833       	69.67978       	69.89575       	70.2871        	71.98798       	67.43454       	68.283295      	66.74356       	64.07879       	65.839806      	64.52876       	60.73909       	58.91223       	58.129555      	59.612717      	54.333748      	54.82057       	49.836006      	46.668533      	44.175705      	40.019474      	36.19301       	36.72205       	30.59203       	37.022137      	35.801758      	37.472916      	70.13439       	101.00614      	114.37935      	116.70682      	114.81205      	117.783806     	118.120026     	117.36719      	114.67369      	119.82726      	116.63623      	119.398315     	118.49572      	129.6793       	121.12411      	122.976974     	132.38434      	134.33273      	135.26804      	138.61095      	145.8571       	147.68391      	154.13774      	166.2491       	158.92955      	116.46925      	85.38448       	60.290623      	43.59874       	46.0947        	44.785446      	45.23278       	43.176285      	
29.763771      	27.644297      	35.945503      	42.821148      	85.59325       	127.002335     	126.90921      	126.65832      	132.68904      	137.90756      	128.98979      	128.79376      	136.78844      	139.55319      	137.49591      	135.27484      	138.87589      	146.75479      	144.46336      	147.98344      	151.61908      	153.00165      	159.21829      	166.82306      	166.6817       	166.41765      	178.54941      	193.9254       	153.52505      	119.99922      	92.028275      	75.36392       	70.80456       	74.9774        	77.45623       	83.306404      	69.33931       	73.3561        	92.074005      	77.02          	71.29103       	63.13513       	64.65661       	69.17891       	62.94183       	62.89255       	66.18767       	61.347862      	60.29695       	57.194454      	65.05895       	53.87241       	52.597557      	52.074444      	52.03093       	63.160805      	64.31849       	42.573513      	54.486713      	47.734562      	23.76812       	12.53311       	19.383461      	14.231518      	1.1964622      	14.031361      	22.725191      	51.398403      	91.755806      	115.245926     	114.96317      	115.8746       	113.82112      	113.4335       	115.69416      	115.9299       	117.209404     	118.72545      	120.889175     	123.594086     	120.77095      	124.889786     	126.34813      	123.45056      	130.65245      	137.52525      	138.26974      	138.89438      	151.0109       	147.9746       	151.24176      	160.01385      	109.52503      	79.835686      	60.05743       	46.29931       	49.76749       	48.042908      	46.351284      	48.97503       	
28.885664      	23.92715       	21.12461       	34.737198      	76.84847       	114.953964     	121.07985      	123.819565     	128.62224      	127.30505      	128.8751       	129.81242      	131.6864       	125.87012      	133.84657      	134.20503      	135.84837      	138.10963      	140.868        	138.76385      	142.80585      	151.09125      	160.60574      	161.58632      	163.63162      	168.05353      	181.2464       	198.67531      	162.17465      	113.1451       	92.249176      	77.35443       	72.270676      	82.406334      	80.9663        	77.51863       	88.69943       	104.7256       	86.59714       	64.796135      	68.44557       	75.98445       	73.42056       	73.84468       	77.12612       	75.9677        	66.11789       	66.17535       	65.86516       	65.36837       	64.198425      	57.39948       	58.841385      	63.10061       	55.574097      	54.721786      	54.254147      	49.525288      	44.502907      	41.451485      	39.481136      	33.625065      	33.186604      	26.731342      	16.133839      	14.767772      	17.757677      	36.089268      	79.806046      	113.38257      	114.84912      	114.19133      	117.8754       	111.82072      	114.213776     	114.45471      	111.7721       	114.69214      	115.33327      	116.870926     	117.44713      	122.834724     	121.0243       	121.28952      	123.905975     	125.99478      	130.6046       	130.72314      	134.3126       	142.39282      	148.13869      	160.36311      	111.59606      	75.25069       	69.162506      	58.73475       	49.880154      	43.8759        	46.5199        	50.758507      	
29.906382      	21.387724      	23.20288       	24.791176      	56.790573      	108.44581      	124.951706     	122.6256       	121.9711       	128.92157      	129.2164       	127.952805     	127.73612      	130.90562      	134.45076      	138.51425      	139.90002      	137.16641      	138.94603      	143.05057      	148.85529      	146.65007      	147.44589      	158.46446      	161.88638      	163.0283       	173.81013      	195.22238      	176.0084       	118.30727      	103.16318      	90.39412       	78.53987       	73.71208       	68.50743       	77.70143       	69.752426      	71.76987       	79.246124      	75.638374      	73.70124       	74.59834       	76.57966       	72.80163       	67.33945       	68.81407       	67.0929        	62.76312       	66.570816      	65.93454       	62.857784      	59.100845      	58.275673      	56.715176      	55.35059       	47.973824      	51.906532      	49.301514      	45.545883      	39.42195       	40.903362      	38.491238      	30.701082      	23.25339       	13.04874       	5.074706       	4.0010624      	16.408792      	67.095314      	104.71315      	107.01124      	112.49519      	113.735306     	105.3824       	113.457565     	115.35066      	111.05528      	110.06775      	110.517136     	118.579704     	115.02518      	113.14368      	116.35022      	120.96413      	115.55599      	120.20466      	122.70719      	122.965576     	128.12947      	129.4165       	132.19049      	142.80888      	124.406654     	103.68942      	103.27172      	84.668         	62.426712      	59.880398      	59.570396      	64.93909       	
33.032936      	26.355522      	25.027403      	34.74754       	56.57824       	97.21425       	122.80252      	124.54727      	120.671844     	120.52172      	122.69948      	124.8109       	124.23308      	121.2036       	142.4582       	148.69821      	129.61273      	129.02994      	141.56624      	143.1379       	143.51862      	151.00632      	152.85541      	154.44592      	154.87378      	164.25789      	174.27481      	186.52606      	185.60117      	143.24745      	106.02694      	81.235725      	66.40164       	66.17975       	67.904755      	71.52801       	66.62866       	75.87269       	71.567825      	68.762054      	74.37151       	72.26639       	67.08245       	67.29736       	74.11053       	68.16594       	62.786644      	69.61482       	68.14436       	61.049904      	56.056553      	60.589443      	62.23017       	56.279522      	56.4611        	54.002544      	51.709404      	46.317844      	45.382767      	42.389366      	38.34626       	34.059433      	32.700817      	32.632534      	21.535414      	5.510028       	6.204784       	14.639581      	37.96875       	87.094376      	108.7835       	105.256065     	105.75854      	108.72266      	105.615524     	103.963066     	105.188        	109.8362       	107.4991       	108.77095      	112.10916      	110.94658      	105.87236      	109.6736       	114.89786      	118.42968      	120.55335      	121.89791      	125.62892      	131.05531      	135.77225      	143.54536      	145.0119       	122.80216      	94.94246       	71.47792       	68.3018        	68.0921        	72.205536      	77.79239       	
38.169178      	31.08915       	27.966951      	33.163094      	52.156475      	83.51588       	120.24883      	124.12861      	120.91584      	122.75448      	125.901985     	125.143745     	125.94522      	140.96257      	153.32338      	134.52417      	130.52713      	139.49103      	140.75754      	143.52728      	145.663        	148.65622      	153.52635      	151.79915      	156.75903      	165.98859      	170.29861      	184.08603      	195.86893      	151.77028      	107.07945      	92.89383       	84.34848       	99.78807       	86.98396       	69.02619       	71.569595      	75.56018       	65.20442       	67.74904       	73.88223       	65.87352       	64.45428       	70.05846       	64.52019       	60.18251       	61.0719        	58.219845      	61.90201       	56.633156      	52.754093      	52.737263      	52.41179       	48.718845      	46.430782      	42.29691       	40.669094      	38.224545      	35.864754      	33.035458      	30.188242      	25.160378      	21.627642      	15.975205      	12.597722      	25.62676       	4.43429        	4.1294727      	34.576553      	73.56877       	100.6075       	102.462036     	103.77902      	102.31966      	99.90854       	97.76832       	100.297195     	96.20023       	100.24886      	102.71406      	97.26519       	99.06417       	100.6584       	106.96835      	104.82777      	111.020004     	108.479126     	110.678955     	110.2835       	110.23577      	114.21425      	114.55482      	120.77359      	129.1888       	115.37284      	92.138664      	87.20642       	85.68057       	94.172516      	110.8607       	
32.323776      	25.072115      	21.19389       	19.736088      	29.380018      	70.45708       	109.73005      	121.3352       	122.124504     	123.052605     	124.12521      	127.06327      	128.83374      	128.73723      	133.53683      	133.20175      	135.37778      	135.74326      	140.02794      	144.56606      	144.57909      	144.29143      	157.00204      	152.1997       	153.13231      	163.42812      	167.79007      	172.68213      	190.62762      	176.98471      	127.91284      	97.44068       	79.22198       	71.14167       	72.855774      	63.69265       	66.32281       	74.59004       	69.41334       	67.70983       	71.37385       	75.44874       	72.77559       	69.17487       	59.991924      	66.911255      	62.80703       	60.37908       	64.94914       	59.771946      	56.53249       	58.46214       	60.252056      	57.300076      	50.8477        	52.015312      	46.26601       	40.169273      	41.24377       	39.39815       	35.63344       	31.907063      	27.877993      	25.587925      	20.264116      	14.804449      	16.648188      	17.171902      	26.547367      	60.405247      	96.93035       	100.292496     	97.482834      	98.58797       	95.138115      	102.62977      	104.72553      	104.70452      	95.85519       	95.391464      	100.25511      	96.62747       	96.36799       	97.79898       	100.75716      	99.51942       	102.84469      	102.89997      	107.25309      	100.74034      	101.56496      	106.88007      	105.08812      	109.852165     	113.617805     	116.448395     	106.18289      	106.02486      	109.02117      	112.67256      	
33.196228      	26.570818      	23.250765      	33.238064      	40.951378      	60.062687      	102.2296       	124.613525     	125.56617      	122.00257      	122.655014     	133.30667      	132.99657      	126.96489      	131.7476       	129.65477      	131.99246      	133.93698      	137.88667      	144.32729      	139.84174      	143.87405      	148.03204      	151.81581      	156.3295       	158.71402      	168.1846       	170.94337      	182.76125      	192.20776      	138.53526      	109.826546     	93.930466      	72.93086       	66.789474      	64.40234       	65.55454       	70.73848       	68.032455      	66.227715      	68.131805      	69.7965        	59.46433       	56.972134      	55.61329       	65.770065      	59.116333      	62.684147      	60.49689       	61.293377      	56.072353      	58.86566       	54.619392      	49.937683      	52.08492       	52.96089       	49.585716      	45.793312      	40.042667      	41.37276       	38.327263      	31.40218       	27.234465      	21.080376      	16.8023        	10.968323      	3.742015       	1.8873013      	13.797128      	52.02669       	90.57994       	101.48431      	99.05648       	97.025635      	95.36507       	98.64416       	98.48002       	98.980545      	100.232666     	98.2856        	98.21833       	100.194084     	99.312706      	97.20898       	99.74615       	101.67242      	101.82506      	98.30671       	103.90672      	105.78368      	106.35768      	107.0901       	112.94904      	116.02356      	118.05885      	119.05059      	116.96309      	113.55896      	114.00461      	112.65534      	
36.12554       	35.043694      	31.645428      	28.818245      	32.23782       	47.119385      	86.49226       	122.88588      	125.18816      	123.862946     	122.3553       	124.7755       	130.3016       	124.48497      	126.26486      	130.84943      	129.08932      	131.06554      	135.03148      	136.64452      	135.6442       	135.40244      	142.34967      	147.12193      	146.11368      	149.79257      	153.69466      	156.81268      	170.36835      	189.52336      	153.89429      	113.97668      	83.62508       	68.98552       	71.26083       	78.3171        	65.40058       	68.95505       	62.67142       	67.96392       	74.19664       	73.36946       	71.91957       	72.06167       	71.883354      	70.76143       	65.89106       	67.63168       	63.98047       	63.433353      	62.410324      	60.081657      	58.97435       	57.61771       	55.56094       	53.601814      	51.440346      	46.669033      	42.895115      	37.473507      	36.27245       	32.299557      	25.740194      	20.276834      	11.501866      	8.0063715      	0.3909081      	-2.6469464     	3.8453417      	30.19704       	78.07658       	96.41497       	101.56445      	100.26819      	98.169365      	102.82885      	101.17496      	98.352905      	98.03313       	100.87992      	101.61104      	97.82779       	101.15526      	102.90117      	100.41626      	99.48857       	103.81741      	106.17399      	105.52131      	108.47785      	113.37465      	106.72736      	106.36553      	113.45582      	116.25431      	118.28948      	114.235825     	111.34423      	109.162224     	106.44474      	
36.32744       	40.207413      	28.976612      	27.714956      	34.491264      	46.56989       	74.492134      	117.22534      	121.574745     	121.88473      	123.524055     	128.22113      	126.98357      	128.88968      	130.04483      	130.64879      	128.94688      	129.86234      	134.34894      	140.12965      	137.78871      	138.95334      	139.92587      	145.5873       	148.59328      	150.00035      	152.02797      	157.7866       	161.12949      	181.00832      	135.86856      	113.74782      	89.62116       	75.75042       	67.04078       	65.96269       	66.40815       	67.64124       	69.53197       	69.71137       	68.210014      	70.31417       	68.724884      	66.76147       	63.815388      	67.71341       	64.17802       	66.59197       	62.99758       	68.6022        	61.847965      	57.482735      	67.928734      	65.13318       	52.988808      	48.38548       	51.101517      	48.139023      	42.51873       	43.60779       	32.903915      	28.05994       	36.272396      	41.010563      	31.519724      	19.091537      	9.155573       	2.0958211      	-1.1578654     	17.126223      	60.348972      	100.84762      	105.414795     	99.4836        	97.986725      	101.80334      	101.007065     	98.51403       	98.86921       	103.371704     	101.03695      	100.29363      	97.66291       	101.201126     	103.02487      	98.78148       	102.308426     	105.38465      	103.60283      	106.90234      	118.51454      	103.38779      	101.95773      	106.79424      	114.003174     	112.92632      	113.52138      	110.96681      	104.47828      	106.85473      	
34.33279       	26.502705      	20.577192      	17.610138      	23.89485       	41.725857      	64.927444      	106.18366      	122.52858      	124.92964      	122.474174     	124.43852      	123.10213      	126.63648      	126.049835     	132.21161      	131.99132      	129.36604      	132.34694      	136.37148      	136.13255      	140.16441      	143.53477      	145.85817      	147.71536      	149.684        	153.76309      	156.74962      	166.5235       	184.43864      	154.9535       	122.78726      	103.58699      	85.64607       	65.69494       	67.75117       	72.59596       	68.99275       	68.60233       	72.06087       	69.96953       	69.44391       	70.53888       	67.25227       	66.04171       	62.324055      	66.04178       	64.10063       	57.441624      	56.44254       	57.59544       	54.58159       	49.787865      	50.102238      	52.601322      	46.141006      	38.75596       	40.31052       	36.513584      	41.13668       	40.7988        	28.922924      	22.787209      	15.588055      	11.236766      	21.450209      	28.011068      	16.429823      	12.724424      	24.526314      	51.47089       	87.10396       	97.4314        	101.013664     	95.368935      	92.151276      	99.31955       	96.75239       	92.08946       	97.01346       	96.967766      	94.16849       	94.2587        	100.43612      	101.59112      	100.108475     	101.03134      	103.3451       	120.63937      	125.018936     	101.98376      	97.738785      	96.820526      	98.54186       	107.33552      	111.36906      	111.39677      	104.32488      	99.31706       	98.55473       	
42.838505      	31.287468      	24.239992      	19.18993       	18.454592      	25.581327      	50.783936      	105.088165     	120.33324      	122.04216      	122.03664      	124.502335     	121.90944      	124.45629      	129.37502      	128.52196      	125.70817      	128.59233      	133.40546      	132.65372      	134.32158      	137.80252      	144.4399       	147.07014      	148.92682      	153.82394      	159.7886       	157.62894      	162.63739      	179.51715      	170.11578      	124.21297      	110.75631      	83.02894       	67.04296       	62.91547       	68.04826       	69.133705      	67.27064       	64.4019        	68.52082       	68.707886      	64.97835       	62.925503      	65.27496       	61.23386       	58.00759       	62.34887       	57.71428       	53.16624       	49.525375      	52.081947      	49.243484      	46.0736        	46.152325      	41.852432      	35.419563      	30.455444      	42.036423      	38.08635       	37.871204      	42.041397      	41.180786      	46.522724      	41.897068      	47.085457      	42.271843      	34.512215      	33.266144      	58.3798        	74.78227       	98.73599       	100.86125      	98.95626       	99.65397       	99.635826      	95.6162        	98.26093       	98.16108       	96.66736       	95.20934       	95.718025      	96.09901       	95.62171       	100.28238      	100.732704     	99.462875      	96.83971       	102.21715      	105.90406      	100.37585      	103.4856       	108.32947      	106.6715       	103.57288      	103.61934      	107.15941      	108.145676     	102.75126      	102.29459      	
39.43842       	34.66262       	33.008106      	30.844776      	29.74723       	27.61433       	41.70801       	89.40396       	117.4413       	120.97025      	120.944855     	121.79476      	124.11317      	123.9856       	125.865425     	127.20084      	129.24722      	131.5576       	130.37013      	135.88672      	136.56883      	139.07875      	139.71994      	145.70662      	148.6456       	149.3839       	154.04755      	159.75645      	160.10287      	171.36966      	183.66504      	130.69632      	99.72466       	82.58202       	65.71795       	63.943363      	63.646767      	63.345543      	59.68912       	69.37201       	66.61955       	60.538433      	62.306297      	60.10278       	59.713852      	54.71574       	56.165733      	51.217224      	49.682915      	46.349087      	50.033432      	47.486923      	37.3878        	35.373695      	36.996395      	35.145626      	36.45307       	39.97454       	47.351807      	48.07973       	58.956375      	58.490532      	56.698505      	48.457436      	46.610115      	60.135216      	61.88131       	70.53944       	74.523285      	83.90797       	104.05322      	104.46866      	103.01517      	97.430984      	98.19149       	100.337364     	101.40304      	96.053185      	95.251015      	98.65329       	99.50166       	94.962494      	96.45696       	96.889786      	99.34362       	96.46202       	101.66252      	101.31185      	99.153114      	106.00228      	104.05486      	107.85616      	105.633354     	104.07586      	107.6252       	108.09606      	108.482864     	107.66932      	103.384796     	101.120735     	
37.084152      	29.995344      	27.111694      	20.007774      	14.293879      	29.368408      	43.641563      	76.30887       	112.31906      	114.3687       	119.272446     	118.601425     	118.04639      	119.66408      	122.00268      	124.30358      	125.4335       	126.136024     	127.63473      	129.5182       	131.17482      	133.53104      	134.58295      	137.80736      	140.04405      	142.50214      	148.28096      	153.7935       	159.06784      	163.73363      	180.57028      	144.52103      	110.60544      	83.0475        	61.410294      	54.73039       	55.64702       	53.445583      	53.20649       	52.33146       	49.55808       	48.538456      	48.032963      	52.55251       	51.915543      	40.028572      	38.87775       	45.79441       	42.900314      	38.861214      	50.776184      	43.75444       	41.394814      	36.953495      	38.909832      	38.01848       	36.916634      	39.053013      	43.21934       	50.52015       	43.459618      	54.46254       	63.59123       	61.389736      	93.02372       	102.76363      	103.90227      	100.011215     	103.85727      	105.65854      	102.23331      	100.710686     	99.02925       	101.72466      	103.89075      	95.37589       	102.46624      	95.52318       	92.55038       	96.01478       	98.44367       	98.91151       	95.40263       	95.64827       	97.909424      	95.60365       	95.47914       	94.254555      	98.308136      	96.47252       	98.10718       	101.946396     	96.09978       	97.08668       	98.491745      	99.673996      	100.42513      	95.20474       	92.09439       	95.18023       	
40.32359       	35.583237      	33.06447       	19.968771      	17.126873      	23.143908      	31.849379      	60.52697       	108.023994     	116.934456     	116.794624     	117.0743       	121.80992      	119.53913      	118.23809      	121.38558      	124.1316       	122.469246     	124.39116      	123.382744     	127.95113      	134.14044      	130.70316      	137.11353      	136.14993      	135.57326      	146.44574      	152.82767      	148.61206      	152.62991      	170.26064      	142.71696      	92.02182       	72.94262       	58.3322        	42.71952       	36.550632      	39.63613       	38.412254      	32.870697      	32.208183      	34.26266       	32.276993      	24.75526       	32.18686       	39.810875      	38.380352      	25.857542      	43.004868      	45.676243      	47.30286       	37.83518       	48.974545      	52.769295      	41.53635       	49.18035       	54.586006      	63.381634      	70.9824        	83.34586       	99.489876      	103.3307       	100.96464      	101.17559      	97.870804      	97.3698        	96.70393       	96.781456      	94.95081       	94.725945      	93.0326        	97.65895       	97.73466       	96.919556      	98.07622       	98.45732       	96.627945      	92.69364       	98.68949       	97.49178       	94.60076       	95.95773       	96.829414      	98.536674      	94.33069       	94.49801       	96.175446      	96.17878       	96.17134       	98.57667       	97.863846      	96.49438       	101.57246      	101.62427      	106.35822      	106.950035     	112.433304     	114.08039      	103.33131      	98.43703       	
37.092255      	33.6754        	26.930977      	20.158457      	22.964458      	16.228088      	16.925844      	44.12671       	98.78999       	111.79906      	106.27795      	114.261925     	112.93556      	112.338486     	111.48218      	115.42728      	112.616486     	112.5417       	116.12251      	118.1851       	118.83399      	121.76604      	125.31654      	125.64942      	127.975296     	130.9443       	135.08162      	138.95114      	143.61198      	152.80562      	170.66718      	149.35358      	98.56125       	85.29631       	64.15815       	39.98091       	38.27778       	33.973984      	30.789995      	31.658543      	33.56816       	41.67798       	41.448147      	20.986816      	27.605629      	36.808876      	42.53847       	37.03856       	42.564167      	39.985695      	47.030342      	57.63086       	61.388954      	66.04334       	71.71626       	83.51127       	102.04318      	99.212         	97.988         	101.72414      	103.22464      	100.910835     	95.2343        	101.86947      	96.54372       	95.1069        	96.46223       	98.8153        	94.265945      	92.96139       	97.13624       	95.13118       	92.652275      	88.63794       	95.605255      	92.94397       	92.57122       	94.72183       	94.43712       	91.156975      	90.137505      	92.192955      	92.714806      	89.771034      	86.676285      	90.491005      	91.20777       	90.82898       	90.08186       	92.96776       	92.127045      	92.606606      	94.29434       	94.0019        	92.37033       	96.41774       	97.13903       	97.8855        	95.92322       	92.866005      	
36.397343      	33.24095       	31.114347      	20.041319      	12.641395      	14.771082      	20.062082      	45.48883       	91.16206       	113.34783      	111.93565      	111.361115     	114.275635     	107.15422      	109.41296      	112.399376     	110.978836     	111.95016      	106.80777      	116.267456     	114.66472      	116.229034     	114.462776     	115.39632      	121.65179      	119.55663      	124.77758      	129.48207      	131.5898       	132.88199      	142.04758      	152.39168      	113.9096       	76.21749       	55.80636       	44.971523      	40.09493       	37.868332      	39.437607      	27.910671      	30.066456      	23.923933      	34.438816      	34.06617       	29.812584      	40.54163       	51.403957      	49.692844      	56.721848      	56.89791       	60.15049       	82.8783        	100.62965      	100.74137      	100.32283      	98.66003       	98.91503       	101.377815     	101.038536     	98.6691        	96.95649       	98.25479       	92.83614       	95.310715      	93.01867       	94.93841       	96.60186       	89.79996       	93.03809       	99.256874      	96.09462       	90.97767       	94.537056      	97.13004       	96.0588        	92.33885       	94.37874       	95.952156      	96.40341       	94.74617       	95.11638       	96.51425       	96.39965       	93.54849       	92.48898       	94.94925       	93.01906       	96.927         	96.2644        	95.4482        	95.25943       	98.74386       	102.59591      	96.3876        	102.523544     	113.19324      	107.937935     	104.05549      	91.00219       	86.04792       	
31.931389      	35.39076       	28.305634      	22.24866       	16.6106        	13.476339      	14.097615      	30.450216      	75.09286       	105.485954     	96.04955       	101.87802      	108.68952      	106.964874     	106.46768      	109.65733      	110.063354     	101.41673      	105.07143      	111.05268      	110.07034      	109.492485     	113.72529      	116.83252      	115.153656     	116.68519      	116.18347      	119.99554      	123.70764      	127.511734     	137.1177       	147.48734      	107.02806      	79.85318       	79.75325       	59.536293      	51.614216      	49.794235      	42.56094       	38.704536      	44.384087      	52.25724       	58.173367      	44.230957      	49.500896      	65.29865       	69.86279       	76.751175      	103.83573      	105.50406      	102.02554      	99.01551       	105.11356      	102.80847      	97.50805       	98.700005      	101.99911      	101.35539      	95.2646        	95.65069       	99.215126      	97.44526       	95.70878       	95.095985      	98.329025      	91.06861       	92.05297       	96.979454      	91.03642       	89.02725       	102.77495      	103.81953      	84.587906      	89.75169       	93.43824       	96.85594       	92.998535      	98.9963        	94.95566       	90.15187       	91.55294       	95.97716       	90.122955      	90.566635      	93.7522        	94.27916       	93.82189       	97.366936      	93.27109       	91.72783       	92.55284       	95.92046       	92.25334       	91.63429       	95.44566       	99.39823       	101.17347      	97.78992       	92.08714       	89.290054      	
31.036663      	24.691847      	22.802711      	21.32188       	14.637125      	7.8011103      	9.890555       	21.234892      	55.214664      	94.503555      	101.89857      	99.17936       	97.24493       	96.49592       	101.90915      	100.96887      	99.53029       	98.72407       	101.41126      	100.95649      	99.69048       	104.45769      	107.64116      	103.98291      	108.73315      	106.21297      	104.0843       	107.017654     	111.56673      	114.01631      	121.34628      	132.0565       	125.05412      	107.810425     	94.194595      	63.869576      	54.627754      	51.17198       	48.184994      	40.88786       	54.323074      	55.569717      	72.41669       	79.51913       	94.95869       	101.238815     	94.877075      	98.71148       	98.90813       	99.02074       	99.27568       	99.80435       	97.4721        	95.03675       	100.641075     	100.65577      	96.82447       	92.50163       	94.89772       	96.504845      	91.88687       	92.945915      	96.65992       	91.64795       	92.59469       	94.68485       	94.16949       	95.40672       	94.24809       	93.83662       	109.78589      	90.84321       	78.38394       	87.48572       	91.9355        	90.74956       	94.7435        	97.11459       	93.395004      	92.752716      	94.90665       	93.43981       	93.15825       	91.02177       	89.817696      	92.49277       	92.48824       	92.34428       	93.660446      	93.262085      	92.89971       	88.27235       	90.77797       	90.64764       	94.71403       	96.94872       	93.413956      	92.14792       	91.07883       	90.03345       	
32.834366      	32.04191       	25.697025      	20.009657      	15.34935       	7.4733205      	6.5553174      	6.0713468      	32.591587      	83.29682       	93.70318       	91.93727       	96.913086      	96.79969       	90.89507       	92.54066       	94.95351       	95.84218       	87.09877       	87.871445      	91.32093       	89.71245       	86.10445       	91.32875       	96.624466      	89.0043        	88.95401       	95.036255      	94.43471       	89.256676      	97.81154       	104.22765      	103.70202      	112.7154       	93.677765      	71.015976      	60.74665       	70.71982       	83.542305      	93.43204       	87.87477       	97.21345       	102.75016      	100.5839       	97.748184      	102.40364      	101.08409      	96.23298       	99.41341       	103.35064      	102.87389      	96.347565      	99.8525        	101.54174      	97.54997       	97.946465      	101.76588      	104.32818      	96.06444       	95.45683       	101.37585      	99.12442       	93.53663       	96.150375      	98.00553       	96.30295       	90.3569        	91.66117       	92.405846      	89.17689       	91.890656      	97.97938       	93.7892        	92.636284      	94.15494       	97.75916       	95.33525       	93.2012        	94.126625      	98.10033       	90.95297       	92.56894       	93.52848       	92.21608       	86.727486      	90.46777       	92.457146      	89.14196       	91.14893       	92.83833       	97.79261       	106.74784      	95.59936       	90.77379       	100.42484      	94.92354       	81.11397       	87.40949       	92.71693       	94.64305       	
34.207256      	29.047401      	24.75189       	15.7066965     	10.876229      	8.724765       	6.446447       	14.460894      	32.851265      	67.405876      	94.21448       	96.5799        	94.89226       	97.91379       	89.83742       	89.914024      	91.41842       	95.53467       	90.14485       	90.41133       	97.18766       	96.016556      	88.71678       	92.039764      	96.50835       	91.7326        	87.991936      	92.52459       	92.57148       	92.31487       	90.55282       	97.55017       	101.25125      	94.929726      	97.23006       	100.74491      	96.82971       	93.356445      	94.24293       	98.179306      	97.142334      	97.02646       	98.20436       	99.84888       	97.70923       	95.787506      	98.485504      	95.842285      	95.760735      	101.51217      	100.52684      	99.053055      	96.615486      	101.13239      	100.55739      	95.56076       	96.472496      	100.41016      	99.03395       	96.64953       	100.0796       	96.37004       	96.35544       	92.561775      	96.891106      	94.551796      	94.65121       	95.792465      	96.02684       	91.44758       	93.65247       	96.58996       	99.55024       	98.14835       	90.34222       	93.30965       	94.219536      	90.47786       	90.727066      	92.118164      	87.90396       	83.56774       	84.74887       	82.45125       	92.63449       	92.73739       	97.446045      	97.31235       	95.40161       	94.19446       	95.64664       	95.718376      	94.28523       	89.17322       	97.19426       	94.92464       	92.921074      	88.94838       	84.077065      	85.73632       	
30.213583      	25.63437       	23.028881      	16.27897       	9.497526       	3.7884555      	0.20387404     	0.10087371     	2.213128       	47.354065      	93.2152        	96.10131       	90.14517       	91.38478       	94.64604       	93.33838       	92.42117       	90.96879       	90.329765      	89.51503       	91.17143       	91.082466      	93.18615       	91.58157       	91.6591        	98.02495       	91.64273       	91.15854       	91.93282       	95.631195      	95.492905      	94.79269       	96.78322       	100.19901      	99.86331       	98.91191       	94.80287       	95.47303       	97.676834      	98.576866      	95.27699       	95.306145      	100.01088      	99.042465      	98.10889       	100.19791      	99.35047       	100.02086      	98.70844       	97.64355       	98.08818       	95.22039       	96.28089       	99.20773       	97.22383       	95.51172       	97.20911       	100.1964       	97.222404      	99.404144      	99.10745       	94.574875      	91.936615      	92.22067       	94.93192       	93.12741       	86.356606      	91.21497       	89.03234       	83.21799       	89.05665       	92.62414       	88.972275      	91.301674      	92.47403       	93.90762       	86.90318       	87.24496       	92.53559       	95.883         	88.828384      	88.058365      	94.34264       	88.16678       	87.73676       	90.21924       	94.31102       	89.28459       	88.051636      	91.36689       	93.200676      	87.39424       	89.87808       	92.88326       	95.60158       	92.64971       	97.35087       	97.91259       	97.73093       	92.5852        	
31.4536        	27.831814      	21.416939      	18.163723      	15.396857      	9.822527       	0.027814938    	0.62248284     	8.3462515      	38.06884       	82.60568       	95.84154       	93.92138       	95.145546      	92.184975      	93.306145      	92.689766      	94.211395      	96.948235      	94.87768       	95.35776       	93.59975       	91.66358       	94.24348       	97.006584      	98.68361       	94.03353       	97.298004      	99.27754       	96.73946       	98.264885      	100.694984     	99.03064       	99.558266      	97.99484       	101.28263      	101.21162      	96.99138       	97.592735      	97.149826      	96.201706      	96.89393       	96.11401       	98.01291       	94.68717       	95.73137       	96.089066      	95.73381       	95.250374      	95.366425      	97.44786       	93.819786      	91.68688       	93.86874       	97.28399       	95.96253       	94.690926      	97.399765      	96.62781       	95.316635      	98.3246        	96.66839       	95.74117       	94.00278       	96.63431       	94.80582       	97.94188       	91.910805      	90.324875      	93.60267       	93.71525       	93.84587       	97.5679        	94.29243       	98.36548       	96.644035      	94.48925       	95.718544      	95.80627       	94.59034       	95.15446       	92.833115      	90.02904       	92.561226      	95.087776      	94.14223       	90.473114      	91.172676      	93.68549       	91.705124      	90.38091       	91.159294      	96.785805      	92.170364      	93.571396      	96.1001        	92.403946      	92.346115      	92.23075       	90.092514      	
33.166885      	27.378279      	20.557705      	22.740622      	14.287257      	11.894506      	12.300912      	7.381543       	15.493692      	38.18384       	73.43144       	100.161896     	98.10676       	94.70143       	95.2836        	95.99749       	95.223885      	94.204865      	94.81981       	97.759735      	92.7004        	94.134315      	92.64237       	95.645515      	92.17286       	93.70788       	94.29564       	92.67261       	91.40858       	94.32702       	94.55099       	93.63585       	90.27282       	92.72155       	95.82187       	95.821884      	93.33858       	89.69233       	93.89299       	95.30788       	97.96823       	95.41075       	95.478516      	97.97963       	92.757324      	94.39371       	97.36534       	93.547005      	95.866486      	94.56651       	92.520294      	92.95788       	92.813         	95.87256       	94.92301       	91.79377       	93.28316       	95.460884      	92.55439       	87.92631       	96.394356      	96.90931       	93.050285      	92.20157       	94.986946      	93.77575       	88.9578        	89.03146       	94.089355      	91.10468       	87.49304       	87.492355      	96.59993       	94.17001       	93.715454      	95.76202       	97.89181       	94.2356        	90.14941       	95.169685      	98.080185      	89.47518       	92.08009       	94.96729       	91.74785       	88.65124       	92.572395      	92.583176      	92.327934      	92.26069       	91.544075      	90.81282       	91.35348       	87.65312       	88.7957        	89.33716       	90.883865      	88.698395      	86.64778       	92.3059        	
43.870224      	27.640177      	30.81721       	33.389004      	33.88152       	26.228466      	25.690662      	24.078453      	14.642212      	25.14856       	71.839         	99.86073       	96.73051       	99.74501       	99.84604       	96.30672       	98.13897       	98.46677       	98.229744      	90.06173       	94.38936       	95.66666       	96.98107       	94.77738       	93.62757       	95.158844      	95.691635      	94.758286      	94.91303       	96.315315      	90.91211       	94.564316      	94.08556       	93.52636       	94.49263       	94.991005      	94.432465      	94.229034      	92.35039       	92.05758       	96.4549        	95.10931       	95.20927       	91.62862       	94.42209       	96.79184       	95.3481        	95.674065      	98.24536       	97.52942       	96.312454      	99.53206       	98.443954      	96.25041       	96.767204      	98.62912       	96.8616        	96.188156      	99.02257       	100.07602      	99.28929       	97.52682       	98.28252       	98.689926      	97.93916       	95.91778       	97.46198       	95.94372       	94.70304       	92.87694       	93.82936       	96.46435       	93.917046      	91.25443       	95.597336      	95.99581       	94.25264       	91.21828       	94.471115      	94.047066      	89.0291        	91.124054      	92.67387       	90.84557       	84.96962       	88.27568       	96.77757       	94.49742       	90.426834      	91.207954      	91.70778       	88.71831       	89.865715      	89.13331       	90.05305       	90.19404       	88.773186      	90.55556       	91.13426       	90.68771       	
40.618546      	28.981997      	27.984459      	36.080112      	39.665485      	43.220192      	35.413258      	33.269806      	33.23626       	55.975502      	79.54586       	101.3271       	101.191635     	97.19221       	95.535965      	96.42011       	94.088875      	94.237595      	94.518585      	94.27783       	94.054146      	94.80638       	95.52083       	94.72055       	93.46021       	91.425575      	96.3684        	95.86642       	98.61323       	95.958565      	95.005905      	94.553696      	94.63753       	98.132164      	97.61422       	96.93248       	96.81627       	93.59174       	95.61848       	95.28568       	92.040634      	97.685455      	98.372246      	98.3608        	97.41824       	100.76523      	98.135445      	97.02497       	98.14942       	100.24553      	92.96415       	94.20947       	97.49805       	98.69576       	97.465805      	96.0681        	99.29155       	97.17118       	94.65136       	98.67365       	101.955154     	97.89643       	91.27418       	95.75705       	95.76415       	93.0536        	92.31428       	92.84166       	93.89454       	92.260796      	91.37977       	98.73077       	97.12924       	91.90833       	96.90785       	96.74557       	92.24947       	93.04447       	94.64892       	98.19234       	94.40214       	93.20988       	99.51482       	96.66988       	92.709595      	96.29456       	95.78097       	94.7168        	94.68389       	98.42864       	95.672516      	90.02382       	91.81206       	100.78092      	94.951         	92.44166       	92.992874      	95.33553       	95.697624      	95.63744       	
47.673668      	43.446835      	44.86281       	51.50431       	43.3998        	51.053665      	53.721024      	55.773983      	62.54468       	71.29002       	100.132454     	96.72779       	94.60843       	94.9563        	95.875404      	91.454765      	91.60301       	96.89074       	94.20667       	90.82483       	90.4633        	96.769295      	93.84327       	93.5601        	97.03313       	101.84532      	97.38713       	94.90451       	99.049545      	97.64133       	94.789154      	97.00089       	100.75035      	99.91825       	96.66945       	98.16182       	101.41812      	98.33151       	92.93023       	97.7609        	96.48666       	92.70598       	96.44323       	97.11635       	97.31417       	94.86351       	100.547615     	101.60692      	96.766205      	96.30001       	96.06235       	95.92257       	94.36598       	93.36773       	92.98084       	91.03731       	93.0383        	91.49568       	93.90427       	93.414986      	92.93321       	90.8947        	92.82227       	90.88427       	88.393715      	90.28556       	90.431656      	87.426476      	88.640884      	89.763115      	93.043915      	88.495605      	85.74837       	91.91882       	91.218155      	90.688484      	90.69112       	92.990265      	92.114555      	91.13032       	93.27681       	92.05494       	91.203285      	91.76803       	91.97161       	94.96019       	91.73002       	92.159874      	93.650475      	91.13417       	89.16148       	92.24346       	93.25972       	94.16455       	92.17424       	94.6826        	96.49315       	96.95257       	95.00834       	91.320465      	
59.575233      	49.085247      	61.190804      	62.63499       	63.058586      	66.922935      	97.8678        	96.06229       	96.110916      	97.638824      	98.381874      	98.54037       	91.8228        	95.99154       	97.25689       	94.1289        	97.66061       	99.95969       	97.04998       	95.72494       	95.152954      	96.326         	94.07312       	90.87503       	94.93657       	94.80831       	92.27637       	89.91598       	93.593315      	95.909065      	95.58617       	96.872604      	92.25338       	97.94589       	97.825775      	95.055756      	94.17733       	97.59474       	92.06688       	92.48527       	93.85979       	94.54111       	94.08463       	95.843         	96.12254       	92.84387       	89.231445      	90.867744      	94.25347       	92.395065      	92.92118       	95.47433       	98.285065      	91.91069       	93.224785      	97.88879       	92.29697       	91.03511       	93.33095       	94.580986      	90.103264      	88.92941       	91.58278       	90.15524       	90.004105      	89.784134      	90.71244       	87.11026       	87.37249       	87.307816      	90.64882       	89.15442       	87.14582       	91.56156       	90.56843       	89.89848       	90.31324       	93.71534       	91.39384       	89.675186      	90.48184       	90.85866       	91.75488       	88.66858       	92.13602       	91.133194      	91.96471       	94.6186        	93.45662       	92.29496       	94.0275        	91.84677       	95.7946        	95.27886       	95.322624      	97.01592       	95.54184       	92.8068        	92.59555       	91.60235       	
67.63919       	81.030754      	94.8451        	102.947235     	89.182236      	97.24767       	99.08822       	93.15674       	94.26176       	104.97027      	98.89668       	90.69784       	94.54632       	97.3802        	93.965004      	93.467766      	96.10132       	93.69184       	90.564         	93.54792       	94.36137       	93.2838        	90.01634       	92.495674      	97.00081       	93.44237       	92.44824       	93.86532       	94.96418       	93.40869       	95.9767        	97.99126       	94.45206       	94.49023       	96.636116      	99.608345      	94.568         	93.62487       	96.51659       	92.60198       	93.052086      	93.03228       	95.143074      	93.36586       	93.42351       	95.74901       	96.935104      	92.7047        	92.74413       	96.25302       	91.22728       	89.85953       	96.01431       	97.056816      	95.70595       	94.79723       	95.00928       	99.03984       	91.27149       	93.68401       	97.41429       	95.14068       	91.07868       	93.62562       	94.4415        	94.55981       	94.93148       	94.95224       	92.13607       	90.17431       	87.51877       	90.92733       	91.749985      	90.70145       	95.57715       	94.05207       	92.001015      	89.65285       	93.425674      	92.00121       	90.63595       	91.27977       	91.010025      	91.54231       	85.9782        	89.385635      	90.45837       	93.28697       	87.74362       	87.44047       	81.20781       	83.96886       	90.95142       	91.309975      	96.52241       	98.83753       	98.50383       	96.216446      	94.89749       	95.6205        	
99.13838       	98.83125       	95.05713       	100.16649      	96.46001       	96.227936      	95.33573       	97.49307       	94.655365      	95.45197       	98.79534       	100.19596      	97.88591       	94.97566       	98.43783       	98.08021       	96.70535       	99.394455      	99.3213        	94.66309       	95.76468       	98.88501       	96.84172       	94.66489       	98.83118       	97.4733        	98.632195      	93.482506      	99.903366      	100.53061      	96.42895       	97.71491       	100.57912      	96.8362        	97.57865       	100.20601      	102.07219      	103.11069      	98.519035      	95.89055       	98.819         	97.187874      	94.33617       	95.04112       	98.10547       	95.67935       	91.08842       	93.45975       	98.219345      	98.10357       	94.17496       	93.02965       	94.36844       	91.028656      	91.54183       	96.739         	96.61773       	92.852974      	96.64762       	98.79316       	95.269424      	92.198494      	94.773834      	96.33754       	93.038         	94.263275      	92.78629       	95.73892       	88.78692       	89.95316       	95.8553        	95.18908       	90.8457        	95.20273       	97.831436      	93.228935      	92.431046      	93.39079       	95.49938       	94.13144       	96.925224      	96.47838       	91.92976       	92.78072       	90.56977       	91.2948        	92.84415       	93.56063       	95.03624       	96.542854      	89.83226       	92.73073       	95.83154       	93.40058       	93.257866      	93.52738       	95.54485       	97.469444      	95.697105      	95.64627       	
101.032745     	102.78348      	97.67616       	96.257965      	100.20207      	100.63056      	94.55589       	94.2331        	95.37959       	96.39643       	97.073395      	96.56611       	98.31173       	96.84665       	94.8005        	99.85194       	95.19716       	95.569595      	95.399666      	97.02264       	96.44455       	92.93248       	94.287636      	94.06972       	93.93934       	92.54787       	101.45973      	95.24797       	90.77209       	94.928604      	97.253654      	97.57191       	95.82962       	95.21251       	98.34522       	97.98508       	93.53146       	96.95858       	96.24231       	94.647354      	94.90069       	97.76952       	95.22321       	95.62227       	104.14271      	96.272736      	93.95887       	92.805984      	89.52575       	92.784966      	93.677216      	89.52011       	93.29447       	90.91825       	90.96285       	88.82874       	91.85811       	91.47902       	89.86347       	87.33495       	89.49787       	87.41768       	83.794556      	81.60425       	86.95972       	85.43436       	78.40503       	87.76645       	87.34122       	85.51712       	86.54064       	84.40913       	88.38848       	87.03181       	87.990326      	88.11259       	89.84884       	89.40913       	88.81097       	90.97389       	88.03597       	87.741165      	90.67095       	89.07445       	87.30175       	86.63639       	85.92789       	88.585045      	88.85799       	87.216064      	89.526764      	91.68377       	89.389244      	91.15714       	92.94154       	92.28535       	90.84627       	90.87155       	96.397964      	94.528885      	
96.6175        	93.34326       	97.741776      	100.9067       	99.13277       	95.93428       	95.26877       	96.04647       	93.366806      	93.63383       	96.29023       	95.66138       	92.1752        	98.21378       	94.90967       	95.40601       	93.72461       	94.271774      	97.66994       	92.32935       	90.50025       	92.89445       	93.0293        	85.689575      	88.966705      	109.23348      	92.65412       	82.17468       	85.45269       	97.10791       	89.94364       	94.27227       	97.58217       	96.89346       	93.57624       	96.01033       	98.86095       	96.24373       	94.59462       	93.138824      	98.66748       	98.43604       	95.21953       	108.67487      	88.93225       	83.34321       	96.110245      	98.86937       	94.46624       	95.96646       	96.91064       	93.446045      	94.25827       	93.90455       	93.71221       	92.63359       	95.39043       	94.38416       	91.043594      	90.65596       	96.92364       	91.59415       	88.96467       	92.65084       	95.435905      	88.85914       	89.39922       	92.51749       	93.19201       	90.81226       	91.20732       	91.021675      	89.74906       	89.25451       	94.90762       	94.76146       	94.29577       	94.070465      	96.447395      	94.97859       	92.90514       	95.02253       	96.501595      	94.33412       	94.681755      	96.97621       	100.89979      	95.48338       	98.978226      	96.51224       	100.50884      	96.92921       	96.979004      	100.618034     	97.395515      	99.39376       	102.02414      	107.9875       	101.07671      	82.4115        	
97.84362       	96.046684      	96.99623       	100.599434     	100.09581      	96.70966       	96.47616       	99.17152       	93.257454      	93.38018       	98.845406      	101.1676       	97.14685       	96.524994      	98.84467       	100.809006     	97.467285      	98.36476       	103.76253      	97.89498       	98.864716      	99.22768       	98.51518       	96.17179       	96.13512       	99.6728        	100.827324     	94.857254      	96.357285      	100.140465     	98.24266       	99.396576      	101.00358      	100.905396     	97.40397       	96.3051        	95.83265       	98.355515      	95.93416       	93.11286       	107.02815      	99.57598       	103.54407      	98.868095      	85.99677       	96.50215       	100.20923      	97.93689       	97.47173       	98.881195      	95.77975       	98.197914      	97.50606       	96.86218       	96.61588       	94.000694      	93.09799       	95.277306      	93.44211       	92.319466      	99.06743       	96.76734       	93.309906      	95.753586      	95.81408       	92.91225       	92.98184       	93.45531       	97.74601       	91.990364      	91.075455      	93.42891       	95.337814      	91.617195      	93.38343       	96.832016      	95.04183       	94.93908       	91.5431        	96.213326      	97.04324       	91.39148       	96.14537       	96.78059       	91.375374      	93.671646      	98.30217       	94.89619       	94.4442        	96.23121       	94.68334       	93.36361       	93.00365       	100.92634      	104.78205      	101.57683      	104.27038      	102.63496      	80.30196       	51.850586      	
97.3474        	97.77039       	97.600624      	95.237495      	95.21315       	96.58959       	93.628334      	94.61787       	96.836624      	97.73223       	94.585175      	95.109955      	96.53743       	94.44559       	96.43487       	95.19499       	94.29157       	93.611946      	94.37594       	95.92409       	94.91088       	91.44467       	94.1065        	94.117546      	93.93022       	93.55498       	96.65533       	96.51751       	94.49543       	94.70255       	93.42996       	92.091156      	91.044525      	91.21253       	93.73278       	93.95113       	92.99512       	95.74865       	96.268036      	91.09338       	91.83931       	92.639         	92.59884       	95.10866       	95.323364      	92.06652       	93.67288       	94.64701       	93.63208       	93.15462       	91.48825       	95.311874      	93.696075      	97.30928       	96.54525       	95.98113       	91.65592       	93.93409       	96.42099       	97.03779       	97.121376      	94.82781       	92.448654      	92.9733        	92.12066       	94.15833       	96.87035       	93.78552       	94.387436      	94.53106       	95.06165       	92.12338       	92.49327       	91.99704       	92.456955      	93.963066      	94.3013        	94.85998       	93.729774      	95.26855       	96.10335       	96.20064       	95.41847       	95.247505      	95.865074      	96.769196      	95.38288       	99.550095      	95.88344       	95.28346       	98.03533       	94.77535       	94.03148       	97.560455      	98.39259       	102.176796     	102.6093       	99.28637       	74.04608       	48.31696       	
94.50355       	89.9812        	94.9431        	96.3505        	93.30636       	96.45996       	93.73608       	96.8393        	91.583664      	91.56628       	96.490036      	96.56405       	94.32919       	98.13408       	101.71294      	98.09401       	96.4644        	98.62314       	99.380684      	96.6171        	96.15794       	101.051094     	97.34882       	96.97232       	96.61363       	100.00844      	95.98261       	94.17841       	96.34169       	97.515175      	96.725784      	94.737755      	96.91611       	94.90465       	94.317825      	95.67907       	96.223076      	93.794716      	92.83028       	91.45211       	92.96174       	90.11483       	91.65843       	90.22917       	93.404434      	89.3508        	89.912094      	92.29041       	88.53842       	88.07171       	91.28873       	90.082146      	87.15942       	87.729805      	92.04004       	89.124756      	86.46097       	88.72892       	90.95707       	89.19997       	88.7594        	91.83739       	94.305244      	88.55458       	86.0998        	94.64792       	93.72799       	91.270744      	90.9355        	94.896965      	94.61634       	89.80527       	92.23479       	95.0846        	92.89334       	93.44927       	95.430305      	95.884315      	94.13283       	95.92053       	97.21608       	98.751045      	94.64558       	98.22084       	97.44193       	94.901474      	96.97442       	95.48097       	94.913315      	91.50906       	88.40158       	91.61484       	92.947395      	97.526886      	98.7341        	100.455444     	104.283844     	108.276215     	86.708786      	64.75407       	
89.795975      	94.19597       	93.546234      	89.913734      	96.32735       	92.822556      	87.2012        	86.24397       	92.229385      	88.74661       	86.80635       	92.52086       	94.06682       	91.78448       	91.23851       	94.57808       	96.453316      	93.68497       	96.69273       	94.91623       	94.07006       	94.72934       	96.910225      	94.97306       	92.00911       	93.85718       	92.483604      	90.4144        	93.5561        	95.54695       	95.224846      	91.95739       	91.65946       	96.021576      	97.16475       	94.19311       	98.09832       	100.57702      	95.95611       	91.39437       	93.0681        	92.83559       	89.82441       	90.747604      	96.47104       	91.38121       	89.99979       	91.18115       	92.16476       	91.98692       	87.927376      	96.40549       	91.82853       	87.802765      	91.46182       	93.9619        	92.37983       	90.28706       	91.48332       	92.88326       	91.37638       	90.593994      	94.56283       	95.44238       	93.67885       	94.999466      	97.64412       	94.45907       	88.292755      	93.74076       	96.38953       	93.11275       	90.16021       	91.09529       	97.94765       	94.99069       	98.099655      	100.418594     	98.85128       	95.393936      	99.71247       	100.778244     	94.675255      	93.335396      	94.265274      	97.132126      	91.953766      	90.7516        	93.941734      	93.38752       	92.35847       	93.02807       	97.11398       	92.4834        	93.58774       	102.136024     	101.20434      	101.19999      	88.75563       	65.94797       	
89.7941        	93.38464       	92.481735      	91.542404      	93.605194      	96.75459       	94.33304       	91.32761       	92.934494      	90.00724       	89.718216      	93.008255      	95.27375       	93.58752       	92.34346       	94.806244      	92.64311       	93.117         	93.21022       	92.368744      	89.847046      	89.86437       	92.12043       	92.45341       	90.10593       	89.10062       	93.032486      	90.82389       	88.95904       	91.04186       	94.92752       	92.7946        	89.16568       	95.23198       	95.20845       	93.132675      	93.50247       	95.66226       	97.74638       	94.37334       	91.18178       	93.97891       	90.96013       	89.52138       	95.02766       	95.57454       	89.88501       	95.775406      	92.871124      	93.89769       	91.92005       	96.617584      	97.672         	96.56855       	92.15079       	98.42985       	98.4937        	94.1618        	94.474594      	99.35677       	96.81904       	91.75612       	93.54048       	100.540665     	96.57335       	92.60526       	93.55689       	96.89479       	96.33922       	90.99385       	91.73127       	90.41755       	88.06279       	88.37408       	91.979294      	92.70309       	88.51741       	90.36234       	90.54479       	88.50666       	88.08382       	87.534454      	84.60576       	82.27906       	84.035416      	87.93871       	85.33981       	80.439224      	92.93478       	91.716606      	93.74997       	91.06163       	91.20385       	95.93059       	95.468254      	100.26217      	109.75773      	112.51486      	98.25041       	71.91763       	
93.80187       	93.36922       	93.49217       	94.80331       	95.79097       	95.06941       	97.332275      	95.76763       	94.46297       	95.29111       	95.75887       	97.593346      	97.91357       	100.556404     	99.37123       	96.80077       	97.603386      	100.883255     	97.75369       	96.7087        	99.73939       	99.48115       	97.32445       	96.41212       	96.66713       	94.6259        	94.0844        	93.797935      	94.85478       	95.25384       	94.20667       	95.912476      	97.254684      	93.877846      	93.20228       	93.72335       	95.104965      	96.319016      	96.66812       	97.01395       	95.64247       	90.93582       	92.1352        	94.20512       	90.67355       	96.84016       	94.876915      	94.18246       	95.86272       	95.70196       	96.00563       	92.12767       	90.40125       	95.56328       	96.0894        	93.60544       	93.31909       	96.563385      	94.87552       	91.53582       	95.81819       	95.40743       	93.655         	93.54346       	96.72555       	98.28821       	95.555405      	97.115486      	101.63728      	102.256805     	103.79325      	99.00167       	75.192276      	56.647823      	61.87629       	75.17619       	85.2674        	95.39743       	96.81712       	93.541435      	91.10334       	91.530426      	87.19885       	88.18609       	91.10388       	89.51897       	87.30818       	90.87983       	90.095345      	93.443756      	88.771194      	87.20768       	90.16621       	92.184296      	91.05208       	96.080376      	98.00143       	103.03435      	100.517365     	82.61113       	
97.37272       	91.1823        	94.872406      	96.35143       	91.424126      	93.14352       	92.724686      	91.86529       	88.50475       	85.761925      	85.96249       	84.70179       	92.53818       	94.660065      	96.66328       	98.866196      	95.885345      	95.60796       	94.434525      	97.766         	100.604546     	99.57023       	98.76758       	101.02457      	100.532646     	99.239334      	99.14452       	102.130844     	103.65636      	100.3968       	101.01161      	101.30221      	103.54274      	100.09059      	101.25221      	101.97575      	105.31324      	108.51725      	106.99509      	105.77413      	104.3868       	100.65344      	98.21445       	99.93456       	102.61252      	104.20996      	104.1617       	103.274536     	105.89917      	106.30148      	107.48732      	108.99073      	109.8889       	110.06612      	113.79412      	115.89225      	115.95106      	115.04461      	113.99466      	114.170616     	121.20792      	120.24568      	117.99997      	126.57202      	128.30605      	133.87059      	98.8662        	91.63835       	88.504234      	57.89011       	48.91372       	29.212912      	7.6101766      	-1.9560487     	-3.8866143     	4.276878       	13.725408      	61.75449       	99.65604       	100.49226      	96.65873       	99.30712       	102.62785      	103.193306     	100.19291      	102.38372      	101.5699       	98.84267       	98.557014      	101.45381      	103.579834     	100.93111      	98.05326       	106.89188      	110.20733      	107.33379      	110.53234      	117.22326      	114.45596      	103.11669      	
93.635574      	95.989586      	97.08477       	94.80775       	94.227615      	97.45216       	96.95668       	94.38909       	94.59535       	96.11743       	96.56112       	91.23717       	96.23919       	96.07228       	96.43724       	98.30494       	103.75331      	101.16019      	98.72697       	105.51149      	108.94444      	104.36353      	101.02764      	101.871445     	105.82495      	100.0828       	98.803795      	101.392685     	106.59999      	104.42406      	104.072174     	107.690056     	106.62894      	107.22304      	106.85486      	109.63753      	110.040436     	107.240005     	112.21785      	113.75921      	107.34123      	107.52129      	108.493965     	106.873505     	103.62901      	110.26747      	111.28084      	111.32289      	111.0037       	118.160194     	119.1567       	114.22614      	119.37952      	120.56873      	120.76446      	114.368935     	117.94085      	123.45988      	127.87133      	126.90454      	130.63606      	133.73875      	148.64893      	124.31604      	112.2646       	79.78797       	46.965725      	38.775486      	33.948307      	17.692232      	10.558926      	11.079154      	5.9611225      	-0.18957798    	-4.78137       	-18.069454     	-14.840606     	26.408316      	93.41828       	100.31544      	101.45077      	99.594475      	101.270645     	102.5682       	102.84244      	101.67326      	103.130325     	101.58913      	103.63548      	98.757286      	98.329506      	100.31201      	100.02795      	103.5435       	107.295616     	109.962685     	111.5463       	115.521935     	117.03581      	109.3345       	
99.46607       	98.84652       	99.50052       	99.32989       	96.900444      	98.275665      	97.604546      	96.597176      	94.7691        	98.02969       	98.58427       	98.9985        	101.118256     	101.85103      	104.17534      	101.249794     	102.5727       	104.0206       	108.50986      	107.00141      	110.365204     	108.487045     	107.9415       	108.75538      	107.51005      	107.76368      	108.65633      	106.86035      	112.19727      	109.57283      	110.45675      	107.799034     	113.87298      	113.273056     	116.42873      	112.656006     	113.41853      	112.24305      	113.980385     	111.84648      	109.3824       	119.59177      	116.83912      	119.156456     	122.79118      	124.591064     	118.866806     	124.94899      	128.75534      	130.52036      	127.81094      	131.55467      	138.03864      	146.0814       	138.84372      	138.40668      	145.6057       	155.7442       	145.90526      	109.7834       	114.27734      	97.74788       	77.64076       	57.994377      	45.94327       	35.026546      	32.827744      	32.548485      	29.292717      	25.181078      	23.303288      	21.77239       	14.511007      	14.534876      	4.645161       	3.9952815      	10.626413      	26.905994      	86.115555      	102.587456     	100.49163      	99.71216       	100.98564      	101.92795      	94.51949       	99.017         	100.71839      	96.01282       	96.95741       	98.75943       	102.19605      	97.76095       	98.20743       	105.43065      	105.09779      	102.3085       	106.28438      	109.81377      	114.75235      	116.61223      	
100.13573      	102.412735     	103.297905     	103.55184      	104.16332      	103.123856     	99.1585        	103.39527      	102.68553      	102.79168      	102.6873       	103.61455      	106.3066       	107.48548      	107.24251      	108.288994     	109.070854     	109.72778      	111.444        	112.98421      	113.63393      	111.151764     	112.10121      	113.360794     	111.00224      	114.718735     	117.36657      	117.5011       	117.66102      	116.65651      	119.26794      	120.4532       	119.61685      	119.23988      	119.405136     	117.445595     	122.58005      	123.51681      	121.22497      	123.74341      	125.62802      	128.04698      	126.763306     	129.59947      	127.72506      	131.79694      	131.85477      	133.69005      	139.56036      	139.22154      	138.5545       	140.40674      	153.76472      	160.60042      	135.13165      	109.86098      	85.820915      	78.93379       	69.34079       	55.873886      	47.57279       	46.35929       	35.0357        	33.744602      	33.09174       	30.177996      	28.080736      	25.031029      	26.508238      	21.649218      	16.839916      	14.093115      	13.898172      	13.334362      	-1.512818      	-3.543198      	-3.9108012     	9.058752       	63.712303      	95.727585      	99.931076      	97.5491        	99.83613       	99.6883        	99.09282       	95.34154       	99.78049       	103.950455     	101.68629      	101.56888      	103.35827      	105.100494     	105.919174     	105.70564      	109.846405     	112.28561      	115.642654     	117.25915      	114.18594      	112.63307      	
104.15241      	101.517265     	104.15768      	102.21569      	98.234406      	104.22946      	106.267876     	101.61315      	102.90164      	104.219574     	105.34478      	102.89549      	104.78651      	113.10851      	108.369644     	104.53962      	106.06335      	110.60985      	109.72392      	106.0663       	108.66026      	114.64205      	113.62212      	112.76997      	117.44125      	118.288994     	116.43888      	121.56105      	124.77832      	123.1062       	123.774536     	128.58908      	127.296844     	124.44999      	124.25468      	129.87926      	135.25969      	130.05719      	134.59187      	140.01141      	136.86107      	136.56644      	139.53766      	143.02188      	145.32188      	145.51935      	154.79915      	159.46417      	166.72157      	170.66032      	145.1311       	125.99095      	97.05692       	88.455635      	82.13445       	68.27222       	53.14283       	55.22383       	53.607304      	50.014206      	48.584618      	48.542         	43.718105      	41.796757      	39.339806      	41.72092       	35.77189       	30.649872      	32.91064       	30.804396      	23.521893      	23.700575      	28.193707      	18.006203      	12.557622      	8.457899       	15.823969      	35.897087      	56.76648       	90.786545      	101.36722      	104.44128      	103.04739      	103.16884      	100.42086      	102.82824      	106.13269      	102.4309       	104.25061      	108.768326     	109.95512      	110.1713       	112.48088      	113.57612      	111.50794      	115.075645     	118.808105     	120.78069      	124.43259      	123.71359      	
101.50786      	102.29316      	105.57708      	102.54768      	101.61955      	105.26781      	106.7054       	105.740166     	102.09114      	108.39139      	106.271484     	103.972374     	107.42787      	111.90211      	111.44024      	109.622604     	114.79138      	117.04158      	112.40472      	111.828735     	118.14228      	123.67906      	117.377594     	121.226364     	124.99018      	122.36178      	120.903915     	122.788925     	125.92627      	127.83334      	126.269035     	130.30934      	131.04831      	133.36676      	134.28908      	137.06699      	140.53677      	139.32745      	143.79855      	148.63158      	149.89493      	156.07016      	152.99124      	159.54984      	174.1876       	159.5197       	116.498665     	113.055954     	113.4137       	91.08704       	80.87115       	70.7917        	57.307724      	57.53975       	58.584476      	55.789707      	51.302822      	55.202473      	54.02327       	51.85026       	50.93455       	51.73686       	48.68018       	45.76894       	44.78737       	45.71277       	39.752354      	35.81438       	39.018337      	35.51762       	31.720015      	35.594486      	27.9265        	13.367578      	14.864109      	12.241913      	12.634543      	29.426674      	54.155014      	94.307144      	110.41019      	105.632        	110.371056     	110.43248      	108.08614      	107.62188      	110.83568      	107.86754      	103.80485      	106.93574      	106.142876     	106.67908      	109.48768      	115.41853      	115.70194      	115.79678      	120.28636      	123.97228      	121.25325      	118.6951       	
106.973915     	109.153244     	111.29494      	112.86594      	111.118774     	109.92856      	112.58823      	110.71939      	109.55158      	110.49212      	113.901276     	112.30325      	112.28987      	115.32563      	119.500854     	122.40145      	120.631134     	123.08076      	124.24631      	123.394905     	127.25785      	124.940544     	126.44473      	130.088        	130.46623      	132.36101      	133.42291      	133.27742      	132.74774      	137.19417      	141.54318      	141.27332      	144.21681      	146.86215      	147.58267      	147.07887      	153.32191      	158.06158      	158.1764       	164.34604      	177.79996      	192.50357      	151.82822      	129.8688       	111.42797      	91.02078       	71.18569       	69.43017       	67.39715       	62.59765       	61.01786       	60.58821       	60.918453      	58.11099       	58.066628      	55.97545       	56.809227      	57.914078      	55.91337       	52.28359       	51.271976      	51.23289       	48.47544       	46.35429       	43.9966        	43.09453       	40.54118       	39.00313       	36.097935      	33.61719       	26.911783      	26.579008      	16.428188      	17.521782      	16.20671       	3.85286        	2.3136187      	3.9868023      	30.383808      	79.85042       	104.86598      	104.56662      	105.38516      	107.53845      	109.400764     	109.36951      	107.50489      	111.22102      	108.06621      	109.40718      	111.63334      	113.60643      	114.76811      	112.95676      	117.039154     	122.812325     	125.14461      	123.73726      	116.42884      	115.017204     	
104.19146      	103.10072      	106.84579      	107.24425      	107.162285     	108.353165     	110.14092      	111.18012      	109.670006     	110.08293      	112.02827      	112.24266      	113.61358      	117.73847      	121.74138      	121.575836     	120.02276      	125.834114     	126.45189      	121.87962      	121.867485     	125.75011      	125.11637      	126.734024     	126.139824     	128.91592      	131.14578      	131.70865      	134.17693      	144.3469       	144.18622      	147.38094      	148.20558      	151.04926      	151.06746      	158.38843      	160.92136      	168.4387       	171.47032      	190.24         	173.96808      	133.17174      	85.354965      	68.48801       	67.11177       	64.8437        	63.815834      	66.76613       	66.74544       	66.69557       	65.68278       	65.14964       	63.527287      	60.843708      	61.234962      	60.606525      	60.39413       	54.278416      	57.775322      	59.9783        	53.08497       	52.786434      	51.484554      	48.24844       	46.790565      	43.497726      	37.812176      	34.862667      	35.053944      	34.75192       	27.491463      	22.440195      	11.471436      	19.162971      	14.7954235     	7.9890103      	11.4454365     	7.0961404      	31.732613      	76.9239        	104.48556      	107.59329      	111.28759      	108.30352      	107.3899       	106.78336      	109.20292      	107.88855      	110.15695      	112.53973      	113.11248      	109.77877      	114.15612      	117.04033      	117.62272      	118.777885     	123.89959      	127.46019      	123.911575     	119.762985     	
105.901474     	108.42697      	108.09073      	106.03272      	106.415886     	108.56265      	109.528404     	107.860275     	108.464035     	109.6049       	112.65467      	112.229614     	116.02184      	119.844025     	122.22305      	118.533134     	133.78442      	125.541245     	115.03386      	125.050766     	130.65933      	131.9739       	131.57346      	133.11493      	136.69943      	141.92664      	138.91112      	141.55005      	144.53848      	147.24295      	149.79977      	152.27924      	155.59482      	158.66994      	160.13893      	168.1303       	174.8041       	179.93408      	184.5985       	185.90994      	129.68246      	98.62272       	81.49037       	69.082695      	71.178215      	65.5481        	67.87982       	67.6727        	67.094406      	64.98662       	65.62281       	64.4514        	62.50627       	59.15483       	62.45554       	59.944683      	56.85517       	57.978046      	57.814274      	55.671223      	54.500896      	53.308205      	55.1423        	49.159935      	46.493385      	49.014446      	47.29614       	41.28515       	36.41073       	37.820503      	34.8008        	27.423931      	23.95221       	25.837502      	19.624012      	9.432075       	8.118563       	13.249987      	28.033058      	69.699615      	103.58451      	109.37557      	103.47149      	102.913506     	108.657074     	108.39057      	104.03406      	106.946495     	113.09035      	115.034904     	110.60287      	114.351456     	116.53609      	114.722984     	115.82398      	121.80113      	125.91914      	125.951996     	120.10067      	116.10827      	
104.79218      	114.14368      	108.998        	105.9702       	112.76168      	114.35637      	108.88871      	108.05551      	117.05135      	113.770836     	110.31603      	115.504585     	116.50321      	121.20119      	115.322395     	124.66202      	138.12845      	124.793175     	124.45947      	131.92555      	132.54762      	128.21967      	135.4555       	142.07161      	137.34377      	136.93294      	145.66408      	147.81175      	141.10904      	146.23907      	154.99457      	157.8754       	151.86542      	156.38065      	167.2391       	163.82315      	162.24684      	174.31657      	183.14674      	178.51962      	124.813805     	99.26144       	79.64161       	61.93547       	61.659996      	58.50073       	69.62053       	69.13931       	66.792244      	71.82731       	67.67124       	65.84925       	64.47966       	63.088676      	69.28803       	60.098007      	56.797478      	58.11177       	57.044373      	55.61817       	55.23369       	52.584988      	51.16413       	49.018623      	48.575012      	46.97426       	37.107693      	40.217346      	39.876934      	37.71191       	33.685726      	32.037266      	28.414635      	20.806484      	16.28544       	16.370481      	14.550146      	10.574367      	15.974508      	44.722385      	101.43017      	111.18885      	108.67847      	107.12116      	106.06824      	107.847305     	107.75374      	108.82789      	108.93511      	111.826645     	114.825035     	115.76461      	118.35844      	118.45141      	123.77276      	129.35023      	135.48973      	143.98589      	138.66797      	126.73876      	
100.04864      	103.56067      	105.28048      	101.77266      	101.46749      	109.199875     	108.20366      	105.87924      	107.87288      	108.450874     	106.7256       	104.735176     	107.78514      	115.609535     	111.6958       	114.264244     	123.94142      	117.27546      	115.798416     	120.12918      	127.02295      	125.22773      	123.08774      	124.76591      	131.18326      	130.628        	133.0561       	134.4498       	133.8314       	144.22328      	146.33937      	148.02054      	151.24997      	155.33168      	157.81815      	164.11673      	164.92706      	173.94406      	189.87483      	192.77321      	134.43964      	109.33676      	93.36335       	75.76182       	60.98324       	61.51204       	64.62259       	69.34279       	62.399284      	65.81196       	65.25739       	64.60953       	71.2852        	78.24867       	63.48548       	51.223976      	59.397854      	64.15068       	60.639603      	55.651913      	57.73462       	59.723534      	55.223454      	51.0988        	54.119236      	54.683464      	48.372616      	43.76207       	46.28418       	43.180176      	38.826355      	39.549973      	37.887104      	33.435738      	27.383797      	21.881508      	19.22695       	12.910193      	16.851349      	49.6099        	98.988884      	108.72152      	104.13825      	108.54986      	112.75846      	104.161446     	102.543335     	110.58312      	110.77565      	107.10954      	116.25819      	113.016556     	104.196365     	113.745766     	118.353806     	124.573715     	124.13673      	122.118        	121.51974      	123.20466      	
101.88095      	102.84848      	106.155014     	107.25325      	104.89967      	106.09233      	107.62181      	104.50118      	104.61339      	107.35214      	109.639854     	106.2106       	110.56416      	112.62057      	116.67118      	117.97103      	117.43983      	120.65217      	123.86743      	125.42109      	127.78955      	129.22284      	128.40492      	131.60565      	134.07535      	133.50613      	133.21153      	135.80397      	140.0588       	142.03409      	146.6808       	145.78107      	152.21886      	152.55238      	155.8674       	162.65224      	167.11913      	179.32953      	189.01385      	199.82126      	170.13477      	133.84007      	112.965805     	93.22338       	72.09723       	68.178635      	64.17939       	68.828606      	73.061516      	67.410965      	67.56331       	67.5968        	68.06019       	61.974873      	61.91047       	66.19687       	63.240864      	62.494244      	64.991035      	61.68657       	59.76943       	56.174324      	57.914345      	58.978962      	63.360863      	47.978703      	42.606388      	51.177185      	46.247116      	41.276943      	41.3897        	33.50014       	28.986692      	28.219198      	25.339151      	17.66605       	8.030503       	8.501811       	5.149003       	19.224474      	76.039055      	105.87198      	106.54411      	107.39765      	103.44758      	105.69432      	104.53514      	108.32027      	112.67306      	104.25105      	108.221436     	110.51018      	112.68832      	112.75227      	116.303116     	117.87707      	119.14593      	118.6667       	120.40609      	118.536736     	
96.96611       	102.20277      	102.61811      	100.51065      	107.291954     	109.22814      	103.54434      	107.24663      	108.03854      	107.81851      	105.49312      	110.24613      	114.465004     	108.991936     	114.605995     	120.97348      	116.20999      	114.23165      	122.1147       	121.06011      	119.72405      	123.86443      	123.95902      	127.415215     	126.46352      	124.23002      	127.961105     	133.9056       	134.70418      	139.67455      	138.36331      	140.18318      	145.60146      	149.30894      	153.17365      	154.49612      	159.09058      	164.01538      	170.76657      	181.05618      	175.59769      	135.13129      	108.542404     	87.02019       	73.97921       	66.744095      	66.42559       	67.28301       	67.612175      	69.51216       	68.17303       	69.566826      	72.49938       	68.23729       	66.353         	62.09337       	63.72023       	68.609375      	61.5788        	57.88804       	59.01874       	56.509605      	54.904156      	56.717453      	57.53213       	42.232         	46.627605      	49.892986      	48.55074       	43.673683      	42.429684      	39.630344      	34.598583      	28.643566      	22.858019      	19.35035       	10.672979      	10.839472      	7.1460843      	18.067812      	63.073303      	101.78019      	109.1814       	109.16473      	109.090225     	113.48929      	109.27902      	109.68072      	108.71984      	113.61435      	113.7599       	113.73282      	114.45569      	119.36822      	117.90993      	120.747955     	131.28586      	134.53009      	126.485        	120.005844     	
111.054115     	112.78757      	110.946976     	115.6698       	117.74372      	114.86543      	120.79835      	121.284096     	123.45153      	126.96131      	127.85304      	130.94843      	96.81295       	76.3445        	80.78117       	101.028534     	114.26083      	123.39676      	125.178055     	121.70628      	121.59881      	125.809235     	126.3165       	124.37116      	126.91975      	134.58217      	132.40382      	131.33038      	135.51382      	134.33467      	134.84514      	139.98909      	145.23524      	150.4492       	148.79768      	149.77032      	155.32552      	162.97214      	159.96056      	175.68521      	189.36766      	139.83939      	113.720665     	100.95626      	82.42662       	69.0887        	69.88596       	72.411156      	73.54101       	71.44028       	72.1776        	74.57566       	68.45615       	70.68514       	70.42594       	73.533325      	69.760796      	63.92074       	68.01425       	67.251015      	63.29925       	61.64127       	64.6919        	61.433777      	53.459797      	60.756577      	53.21786       	51.343845      	51.02031       	50.885025      	44.972115      	37.76252       	34.60369       	31.977848      	29.527575      	20.885424      	17.85154       	11.607103      	6.4995313      	17.514267      	65.19409       	99.45881       	110.50573      	108.98495      	112.16045      	112.11331      	112.98933      	111.481026     	113.76104      	117.73235      	111.3337       	115.33641      	116.549034     	115.75323      	114.603325     	119.68411      	124.95983      	122.58117      	121.16879      	118.3689       	
