# www.neaspec.com
# Scan:	 	Whitelight Imaging
# Project:	 	20251007_PS
# Description:	 	
# Date:	 	10/07/2025 13:27:15
# Scanner Center Position (X, Y):	[µm]	49.99	50.01	 
# Rotation:	[°]	0	 	 
# Scan Area (X, Y, Z):	[µm]	5.000	5.000	0.000
# Pixel Area (X, Y, Z):	[px]	100	100	1
# Interferometer Center/Distance:	[µm]	548.096	0.000	 
# Averaging:	 	1	 	 
# Integration time:	[ms]	5	 	 
# Wavenumber Scaling:	 	1.000000	 	 
# Laser Source:	 	4.5-15 µm nano-FTIR laser
# Detector:	 	R
# Target Wavelength:	[µm]	7.502	 	 
# Demodulation Mode:	 	Fourier
# Tip Frequency:	[Hz]	241,340.500	 	 
# Tip Amplitude:	[mV]	45.700	 	 
# Tapping Amplitude:	[nm]	77.130	 	 
# Modulation Frequency:	[Hz]	0.000	 	 
# Modulation Amplitude:	[mV]	0.000	 	 
# Modulation Offset:	[mV]	0.000	 	 
# Setpoint:	[%]	79.75	 	 
# Regulator (P, I, D):	 	4.206850	8.625812	1.000000
# Tip Potential:	[mV]	0.000	 	 
# M1A Scaling:	[nm/V]	0.426	 	 
# M1A Cantilever Factor:	 	1,000	 	 
# Q-Factor:	 	487.4	 	 
# Version:	 	2.1.11536.0
95.64015       	95.75865       	95.917496      	91.323654      	85.71459       	90.993256      	93.1642        	87.85953       	89.576294      	90.10238       	91.649506      	89.23891       	90.810165      	95.12104       	95.32868       	95.77125       	96.46528       	97.45857       	63.223797      	28.453844      	16.472336      	7.0491786      	1.7041192      	9.979761       	24.955662      	23.67181       	29.518251      	31.505665      	35.72343       	39.483643      	40.109005      	42.722786      	46.24125       	48.713684      	50.25223       	51.962418      	52.472374      	54.15351       	56.827213      	59.46897       	52.19308       	55.686905      	60.65552       	55.534546      	54.152824      	62.241226      	65.9053        	60.574192      	71.755936      	77.063324      	75.44828       	84.07797       	94.2592        	98.331505      	85.171295      	88.96889       	95.09893       	112.095856     	138.82321      	186.55525      	184.67056      	174.33864      	160.67323      	156.44662      	155.10904      	149.77872      	138.7566       	142.62167      	140.13617      	131.10963      	129.11774      	130.38841      	128.81253      	127.75842      	122.77152      	126.55142      	120.993        	113.38522      	117.09709      	116.44439      	114.454056     	110.62979      	112.21172      	111.82142      	109.89688      	107.28362      	109.37823      	109.80315      	104.11441      	104.495865     	108.66486      	100.093925     	99.62938       	101.78495      	104.61061      	103.18895      	101.49784      	102.310165     	97.43127       	97.80193       	
107.46535      	108.67528      	110.52796      	111.8254       	108.39798      	113.78014      	114.515854     	110.59884      	109.68909      	107.268715     	110.589676     	106.03612      	106.3024       	112.126595     	110.37191      	105.24488      	109.3377       	108.42266      	74.987595      	40.379356      	27.408346      	21.197805      	15.814086      	16.856777      	29.505167      	32.34821       	36.815376      	43.860233      	52.637844      	47.369057      	37.720886      	49.133415      	49.92914       	49.51522       	51.20251       	54.801968      	60.005783      	52.308475      	56.51762       	62.60527       	63.435043      	64.87709       	73.56258       	71.88313       	69.38469       	70.91944       	77.9413        	91.46993       	89.1754        	87.72606       	89.7369        	91.49277       	94.02255       	98.96742       	92.085434      	103.21142      	119.53179      	133.31308      	166.96371      	181.57262      	167.91933      	160.12936      	154.67001      	150.83408      	144.85661      	145.80269      	141.05396      	137.75175      	137.37935      	134.46979      	130.96368      	130.3168       	126.85747      	120.85493      	122.104324     	120.9049       	122.94804      	122.575005     	115.91873      	117.797935     	117.10482      	115.306755     	111.71376      	112.927055     	109.91806      	108.83098      	109.43546      	107.9783       	105.66132      	104.38366      	101.79623      	103.80584      	98.912926      	96.4825        	107.363434     	105.62279      	101.09367      	100.57829      	98.1257        	96.111336      	
110.07608      	109.02357      	109.67204      	111.13135      	108.36995      	114.05342      	108.3756       	112.651566     	114.98979      	112.659775     	108.36335      	111.59603      	110.87785      	109.18922      	110.310356     	112.93781      	111.15198      	112.83375      	85.17315       	46.48067       	30.386494      	20.03558       	16.615698      	19.95074       	18.705015      	28.242422      	29.658815      	33.182423      	41.55447       	47.409042      	38.741276      	42.98138       	42.67723       	47.86645       	52.881977      	51.49907       	51.094032      	58.415237      	68.03455       	69.08035       	69.15539       	76.92561       	86.16824       	89.84724       	95.65565       	101.72484      	93.85939       	96.93382       	66.07032       	68.261185      	79.10533       	92.61316       	106.271255     	102.90132      	109.79825      	122.90975      	137.238        	153.24716      	172.81204      	155.87924      	146.15369      	139.57722      	135.48387      	132.45277      	128.61382      	127.704475     	125.94327      	125.24393      	125.580444     	124.49816      	120.40993      	116.984535     	121.38006      	116.78879      	116.372955     	116.77984      	112.42691      	113.735214     	110.511314     	109.76006      	122.14079      	109.213715     	103.98504      	108.23488      	106.177246     	108.765884     	102.572464     	103.05245      	100.54126      	112.30533      	104.53029      	98.98066       	107.75143      	100.79956      	102.49874      	100.224945     	97.969986      	96.550385      	102.82891      	108.67915      	
104.90358      	102.594574     	101.92709      	111.0909       	113.01652      	110.72619      	116.27963      	119.85164      	111.27321      	111.8933       	102.569565     	106.21107      	108.18782      	104.80246      	104.28609      	103.87731      	107.19069      	110.456955     	95.81475       	57.92014       	36.569042      	20.068636      	14.345092      	20.759539      	27.297804      	25.751787      	28.664438      	32.05901       	38.761974      	41.107204      	38.73028       	46.959347      	42.632046      	46.766182      	47.77143       	51.290756      	52.819584      	68.49971       	67.62265       	82.83126       	78.80048       	89.73897       	99.7911        	105.08656      	105.73291      	103.58764      	111.08918      	119.96948      	125.85379      	120.29591      	117.58416      	126.59315      	125.40327      	137.60612      	138.43661      	139.27905      	163.52994      	138.80553      	129.30481      	131.24474      	122.88954      	126.117935     	116.09938      	115.44954      	122.6826       	117.90266      	108.46122      	118.121994     	121.52879      	117.689644     	116.51936      	113.65419      	106.29509      	102.34358      	117.31197      	107.59297      	105.28643      	103.84483      	111.87224      	105.86186      	107.87749      	105.61626      	107.05622      	100.9794       	101.14132      	101.61438      	98.934456      	93.73282       	94.95588       	96.72835       	95.40514       	93.35632       	92.68642       	97.01771       	97.70763       	93.18919       	109.81711      	98.63725       	100.91261      	95.5015        	
103.46243      	101.49348      	101.91391      	108.15808      	112.69591      	111.30221      	104.921646     	102.417274     	105.47594      	108.63193      	103.467026     	102.82553      	104.251305     	106.61996      	105.93944      	100.672356     	106.89499      	113.65126      	99.36337       	49.958275      	31.079765      	20.841932      	9.666353       	9.393037       	14.873423      	20.496159      	25.627888      	33.866707      	31.808147      	32.96666       	34.630466      	39.67708       	54.626038      	44.78928       	46.490524      	65.69746       	61.846603      	64.049126      	86.63222       	86.089966      	93.316536      	96.4425        	101.34746      	109.24722      	115.72892      	117.08459      	123.09981      	138.34906      	142.53012      	147.47633      	156.42978      	149.12726      	150.69911      	150.03017      	145.5764       	146.84406      	146.5037       	136.04837      	132.35481      	123.36958      	118.89015      	122.45515      	119.35527      	117.62115      	114.514        	112.036224     	114.43588      	114.711876     	113.47569      	110.55458      	108.51582      	108.48071      	108.291916     	103.1427       	98.98564       	103.23449      	102.55732      	100.568085     	101.44303      	101.1947       	101.11309      	100.68102      	98.24887       	99.849045      	99.732056      	94.05931       	98.8575        	95.09616       	93.04053       	92.83505       	92.57716       	95.51909       	93.29388       	89.55409       	98.55061       	91.33141       	91.78631       	92.54353       	100.780846     	90.54837       	
97.593765      	100.62996      	107.07309      	110.231735     	107.9427       	102.70418      	106.3634       	105.204384     	105.5155       	102.31048      	104.61946      	105.55631      	101.41316      	105.77579      	106.19028      	106.105545     	104.75479      	107.34132      	109.81094      	68.67054       	33.50346       	23.992195      	18.3201        	6.570514       	9.136337       	22.068241      	27.597689      	27.024166      	37.2168        	59.052166      	47.32935       	41.94167       	59.08171       	88.587715      	83.0038        	82.53354       	96.737015      	86.31299       	75.86811       	97.71972       	106.78362      	115.042145     	111.34486      	123.42455      	138.16264      	139.97397      	149.4922       	157.0559       	161.94304      	136.41136      	127.70965      	126.97038      	119.39506      	119.82886      	119.37651      	133.54051      	118.832954     	109.51466      	112.72547      	112.646126     	107.191124     	105.06658      	107.334175     	109.43692      	103.4146       	100.90116      	104.4185       	106.15187      	105.301704     	101.35899      	104.89343      	101.93371      	101.04548      	102.67798      	98.94494       	95.582794      	96.09272       	95.668594      	104.4102       	94.30863       	93.32649       	98.25398       	99.83359       	96.54618       	95.64689       	96.64957       	93.66438       	94.12181       	94.99047       	100.033485     	100.968376     	88.613         	103.702866     	97.52877       	94.52862       	97.84785       	93.33214       	92.71506       	89.417885      	88.25598       	
98.89964       	97.248695      	95.4628        	95.761024      	101.852554     	104.50463      	97.44139       	97.089386      	105.2711       	100.688736     	96.83419       	100.67494      	97.02063       	98.98644       	96.65449       	101.28914      	102.96032      	102.76681      	98.480354      	69.008354      	41.932156      	24.170443      	17.41574       	23.76015       	30.664272      	26.450335      	32.73292       	42.4998        	47.9136        	52.18651       	55.91504       	68.21321       	77.50263       	76.09471       	84.86113       	90.14966       	79.9029        	81.30172       	100.174065     	125.9379       	134.3086       	140.52908      	158.9712       	135.94034      	123.997765     	125.96496      	131.18767      	114.0244       	112.731094     	127.53999      	114.336655     	108.0294       	111.31776      	108.339066     	110.49582      	109.82724      	108.54829      	110.51885      	107.53551      	104.246        	107.55334      	106.27442      	100.397446     	96.804634      	107.354706     	112.42236      	99.598595      	98.82155       	97.27711       	96.807076      	96.78929       	96.275764      	99.14542       	90.263565      	98.21416       	99.32724       	105.915634     	88.021416      	95.937744      	86.7421        	88.4364        	94.498344      	92.912224      	95.62914       	96.71798       	90.72222       	92.339874      	93.80315       	102.18873      	81.58072       	92.547455      	98.50992       	92.8107        	105.19643      	106.0238       	97.56072       	98.04731       	106.31886      	100.08049      	99.95592       	
92.17105       	89.27853       	91.936844      	101.60871      	109.41444      	107.784615     	99.686         	100.71716      	100.87524      	97.74916       	101.59767      	97.54372       	100.72245      	96.01247       	92.543526      	97.34551       	99.96203       	95.871544      	100.93277      	97.99101       	67.92915       	56.15418       	64.62883       	54.64715       	52.702248      	47.520264      	41.417194      	53.481216      	51.976135      	58.60447       	64.60269       	74.15138       	80.896805      	94.604004      	106.399864     	113.42225      	119.545494     	113.9265       	135.9559       	154.24269      	133.61185      	128.66396      	118.32426      	110.0633       	103.78932      	118.36469      	108.42552      	100.693794     	102.02201      	102.008        	99.32966       	97.818535      	99.02185       	97.71066       	97.14746       	93.41767       	98.60878       	94.531136      	91.55846       	103.32527      	97.380135      	94.05356       	93.20973       	92.09595       	94.068924      	91.11022       	91.2775        	94.558014      	102.3195       	83.283585      	87.2576        	94.23386       	86.64232       	87.06181       	86.50954       	93.278564      	88.54327       	87.448685      	90.3487        	94.24129       	90.82683       	86.53925       	96.685394      	90.798775      	95.93653       	96.41289       	87.839485      	88.02889       	82.848305      	92.91295       	91.251434      	92.971245      	91.6609        	87.91533       	90.09897       	87.78144       	98.17546       	93.842606      	90.41601       	89.2767        	
101.9435       	98.582855      	98.46861       	97.47316       	93.09176       	97.82512       	97.95325       	101.34798      	94.39178       	98.27178       	101.578476     	101.42459      	97.3369        	101.119545     	101.82686      	97.04818       	102.951004     	105.71468      	107.873405     	109.16485      	111.87381      	85.86193       	55.73224       	43.797623      	50.29217       	59.556465      	56.38549       	50.6404        	67.061165      	73.32258       	82.29715       	100.12233      	113.44385      	125.79903      	124.259514     	132.83772      	124.999626     	105.70748      	102.08298      	100.47558      	96.868126      	95.059006      	97.87813       	101.66373      	106.110146     	92.1895        	96.15658       	99.44105       	95.88566       	91.801476      	102.04792      	102.20458      	90.61396       	93.80174       	94.25407       	96.96629       	87.94246       	93.11607       	86.97496       	90.68895       	86.22824       	92.48094       	98.01801       	90.4061        	95.272255      	96.35677       	94.75423       	90.74471       	92.32573       	96.83653       	84.83118       	86.25298       	93.04635       	100.80628      	86.119225      	90.003975      	92.479         	92.847015      	89.67839       	93.67897       	90.48957       	89.05472       	91.00273       	89.835785      	83.60111       	84.22213       	92.73764       	87.40462       	82.25533       	79.8874        	79.915085      	89.563736      	92.664314      	86.6089        	88.95723       	87.57917       	82.28414       	86.74564       	91.815315      	99.92795       	
92.40114       	86.90385       	90.064156      	96.761505      	111.744545     	104.21553      	94.7629        	95.10161       	93.02982       	94.8125        	97.64308       	97.36755       	104.0171       	97.21126       	97.95657       	104.22466      	100.699326     	102.197266     	101.73035      	102.31782      	112.64502      	116.62198      	86.798225      	76.36457       	76.44324       	76.416275      	66.48723       	82.68355       	86.98516       	104.001015     	119.74356      	104.87611      	97.11236       	106.572395     	120.84602      	105.56808      	98.80882       	102.76281      	88.6196        	87.220566      	109.32448      	112.56514      	91.16997       	90.55523       	91.44652       	88.166756      	83.6504        	82.677284      	91.05171       	85.02475       	87.753         	88.62863       	88.42592       	85.42842       	81.43993       	84.23279       	87.89285       	81.213165      	85.56771       	89.08681       	93.71195       	84.880035      	98.39639       	90.16471       	84.1217        	105.76106      	92.359955      	90.403694      	86.32369       	85.92863       	87.531425      	87.94255       	88.86454       	90.4274        	91.95985       	87.65024       	90.52454       	89.12444       	106.64633      	108.82145      	94.962814      	93.37564       	91.68788       	88.770996      	89.76635       	93.06885       	93.11565       	91.33597       	87.65116       	89.12979       	84.31819       	80.7353        	87.15272       	91.74981       	90.7768        	84.47868       	90.53995       	89.065025      	88.68384       	87.11034       	
88.87659       	89.43197       	90.94954       	92.69207       	98.10042       	99.72913       	106.323975     	98.52431       	97.38539       	96.37304       	100.17091      	105.02772      	101.18721      	104.53683      	102.00052      	100.62481      	100.00239      	101.23168      	103.91218      	102.535416     	99.80468       	105.1235       	106.01572      	102.398346     	95.08708       	104.32397      	117.30509      	114.355255     	104.48631      	102.085724     	100.740326     	94.288536      	99.45057       	97.69043       	90.0501        	94.88473       	90.99794       	95.26469       	99.46917       	89.691154      	98.9301        	97.76189       	96.14473       	99.97132       	92.004036      	88.24712       	87.6551        	93.739746      	93.6762        	104.52531      	81.332306      	84.04553       	87.10029       	79.86752       	84.709946      	86.080154      	82.52845       	83.702995      	86.561874      	105.34657      	94.07675       	90.988846      	95.03907       	92.12186       	92.14998       	90.28138       	87.0845        	87.89526       	86.59653       	92.95988       	87.54906       	89.126755      	92.26576       	90.62653       	90.00807       	91.281876      	92.89645       	93.96302       	87.60006       	86.351006      	92.10847       	96.20536       	97.008354      	91.233925      	91.937164      	86.85411       	92.10958       	90.34923       	89.59018       	94.305756      	92.08858       	86.58822       	82.378914      	91.95529       	87.59705       	94.79089       	103.79098      	94.278366      	96.00748       	88.96171       	
89.60482       	90.98267       	93.5135        	101.369354     	105.36967      	95.38871       	97.06341       	92.69246       	94.61352       	91.82604       	98.45375       	92.21236       	91.427734      	93.52034       	96.157585      	93.28638       	95.697464      	96.871056      	95.31168       	94.65063       	95.42871       	98.98262       	100.05001      	98.692795      	98.432495      	97.68469       	91.94782       	92.47067       	93.02038       	96.9016        	93.69081       	92.28568       	96.21825       	94.41973       	97.76907       	98.53036       	94.80672       	91.89357       	89.99707       	93.77331       	88.57764       	88.873856      	96.41549       	97.820274      	88.48312       	85.93957       	90.87141       	92.211586      	87.94169       	85.951645      	87.683754      	90.43567       	90.837875      	88.73455       	88.528854      	83.559845      	84.81969       	88.62999       	96.89715       	87.2965        	89.99782       	88.388596      	92.73842       	89.75248       	91.83259       	93.697395      	90.41874       	89.04509       	94.378815      	90.67852       	92.49599       	88.64734       	96.218254      	90.83272       	86.51766       	88.18287       	93.34014       	90.956924      	91.04619       	85.67016       	94.26555       	87.87796       	91.788055      	93.96583       	89.70076       	89.60804       	91.293         	88.80746       	83.20097       	88.69362       	86.2694        	85.92106       	84.06129       	97.232506      	92.13317       	82.621574      	95.2553        	88.866005      	89.08202       	85.22287       	
91.47297       	89.465385      	93.218765      	101.86966      	100.03614      	98.33255       	100.23467      	99.20426       	94.92841       	95.591385      	101.7675       	92.51368       	94.95391       	91.8888        	99.74541       	92.46679       	91.37023       	95.75691       	97.07118       	97.63282       	91.38615       	96.506294      	98.14172       	98.13146       	92.762535      	96.816765      	97.83553       	91.94771       	92.88771       	97.849236      	95.784515      	90.084015      	90.886406      	99.486725      	94.60327       	92.22594       	96.86772       	92.94942       	97.649445      	91.764946      	92.83092       	93.94935       	86.90473       	92.14672       	93.04636       	98.91227       	89.954254      	92.63916       	96.293205      	89.150894      	85.15778       	91.752945      	95.43715       	94.67048       	84.82727       	91.05409       	90.07758       	94.37118       	102.59835      	102.5089       	104.222786     	94.97242       	96.92452       	100.56245      	93.18404       	94.89137       	95.63295       	93.44978       	92.62048       	91.87503       	96.40834       	92.118614      	92.33345       	93.978065      	93.503654      	90.38693       	92.195435      	91.9284        	95.77245       	84.73603       	87.07572       	89.24236       	91.601         	92.82415       	90.608025      	93.75844       	87.24309       	86.93157       	101.75572      	93.37316       	86.710686      	85.60141       	88.38343       	86.126945      	85.13573       	84.04891       	87.523315      	88.11852       	87.779205      	81.81322       	
93.20799       	92.369835      	97.56448       	102.60421      	96.76763       	99.66064       	111.6646       	103.24934      	98.30202       	105.85765      	102.388016     	96.224625      	99.5575        	99.67125       	97.19457       	97.11773       	97.079704      	96.03309       	93.78244       	92.74483       	98.0443        	99.645546      	102.50502      	100.6977       	104.78702      	91.56046       	99.67407       	92.26036       	89.645454      	93.131035      	89.22047       	96.92459       	88.74659       	91.53079       	91.42207       	95.31544       	85.93029       	85.757904      	86.55421       	90.00985       	91.108246      	90.63081       	99.74341       	92.759415      	87.625885      	91.014595      	91.83644       	90.9503        	89.740524      	89.97751       	90.2401        	92.41858       	86.44178       	94.24654       	95.36626       	89.41664       	92.26847       	92.76502       	87.58911       	88.014656      	94.22863       	92.2776        	90.65128       	89.472466      	88.71505       	93.06574       	85.9159        	93.7187        	104.52428      	90.516075      	93.00911       	94.46603       	91.5332        	88.19693       	92.41039       	92.09766       	94.35823       	97.086586      	93.89113       	92.00883       	92.505936      	94.93669       	94.75499       	90.5151        	86.71456       	90.66548       	89.71496       	91.8331        	92.07511       	99.33756       	92.64584       	89.717865      	89.98543       	97.0065        	84.325386      	92.34791       	91.876625      	87.26482       	95.83247       	78.70682       	
89.681366      	85.765         	91.9688        	104.25594      	103.82592      	100.48287      	95.54936       	103.93238      	103.3672       	96.65067       	99.264084      	100.72881      	103.45281      	102.20268      	94.83796       	98.03564       	99.52105       	103.328125     	100.954346     	104.17762      	100.7753       	93.36711       	100.55725      	94.36458       	91.51281       	92.87324       	103.38862      	93.96231       	93.68706       	92.84213       	92.72425       	96.08297       	99.37531       	95.61919       	92.210556      	92.474556      	93.444664      	92.57043       	93.379845      	88.601204      	89.484406      	91.260345      	88.65682       	88.22095       	90.03206       	93.387344      	92.77068       	94.31465       	88.686165      	95.69083       	91.17819       	84.262955      	87.744026      	94.446526      	88.89063       	90.42969       	88.32799       	87.35507       	91.470345      	87.35908       	96.4557        	96.48971       	94.72745       	90.476494      	93.04056       	91.611664      	87.49589       	90.741615      	101.497856     	116.69892      	96.15439       	97.7441        	94.82388       	91.13639       	99.83217       	91.9399        	89.3499        	89.263504      	94.755135      	94.71266       	91.91686       	91.07057       	89.49104       	93.11861       	95.30556       	109.39201      	87.92672       	93.011215      	87.443245      	93.7086        	90.60485       	85.95585       	86.256996      	85.216805      	89.53438       	100.28444      	95.13936       	95.21411       	93.17258       	88.18448       	
89.3106        	91.30295       	93.71076       	95.09914       	90.26738       	91.86678       	94.07887       	99.4055        	95.378006      	97.32465       	97.51341       	90.461044      	91.255775      	91.42242       	91.32594       	93.62514       	97.041985      	97.11396       	99.10091       	92.14266       	93.025024      	101.99783      	96.60754       	95.813034      	97.3807        	96.15701       	92.95906       	90.55527       	93.763054      	93.623886      	89.81758       	91.53328       	88.80403       	90.51167       	89.78712       	94.14552       	92.4897        	91.2188        	95.82931       	92.54016       	92.45365       	91.84489       	93.67415       	93.66966       	93.81247       	91.68851       	91.35784       	91.92087       	90.02896       	92.96977       	92.25148       	99.08157       	93.78296       	92.00294       	92.75235       	93.94792       	87.50038       	87.83501       	91.98353       	89.92768       	90.71259       	103.45125      	99.75943       	92.12598       	89.969894      	91.78295       	100.23668      	95.703896      	88.73478       	94.60893       	97.277145      	89.70121       	89.63536       	98.68591       	100.395676     	98.51793       	99.16216       	98.97883       	89.34839       	91.44124       	102.44011      	92.93725       	95.46381       	93.89434       	99.38745       	91.05355       	87.680664      	89.54044       	94.324455      	88.6742        	84.64103       	88.48873       	92.80176       	90.57758       	89.600174      	91.06254       	94.16931       	91.23229       	92.112236      	94.52954       	
89.63852       	92.46765       	96.95651       	97.65858       	94.46647       	93.95598       	97.25145       	109.2426       	102.44064      	98.70304       	102.957146     	102.04178      	99.601974      	101.39574      	98.39002       	95.78585       	97.644424      	101.24493      	97.9344        	98.78343       	103.71879      	99.81859       	97.97072       	97.03631       	96.20592       	96.62728       	90.02308       	94.15861       	92.0711        	90.008804      	95.96385       	94.53993       	92.41722       	91.38457       	92.752686      	94.6678        	97.28681       	93.56416       	97.875084      	96.52139       	91.59471       	87.50219       	90.489395      	92.005424      	90.33814       	89.3445        	89.2561        	93.19142       	89.19262       	88.15028       	88.228714      	88.86165       	91.01038       	89.70187       	88.09102       	90.51816       	92.76735       	89.64438       	91.45606       	90.04658       	92.38222       	104.4513       	89.82663       	91.63717       	97.307144      	91.93201       	91.7906        	91.92667       	89.01925       	94.18388       	94.30697       	101.772995     	92.848114      	90.2588        	93.835         	93.299385      	90.34668       	88.450325      	92.03089       	90.524124      	88.84789       	87.53056       	93.55031       	111.421394     	101.25036      	91.59164       	91.46465       	93.58088       	94.80969       	90.95321       	90.02813       	88.722115      	93.10495       	88.83013       	89.30482       	96.80403       	92.71825       	89.77967       	91.80794       	88.0211        	
89.95897       	89.19247       	92.650795      	98.445854      	99.6333        	98.81213       	97.317345      	99.345184      	94.78737       	94.699425      	94.838005      	95.50627       	95.0191        	94.98636       	95.823746      	102.53219      	96.04581       	96.87331       	98.295296      	105.07539      	94.75659       	94.30907       	98.44636       	99.41076       	96.02787       	96.14143       	93.6938        	93.55352       	89.01714       	100.96656      	96.97681       	94.93025       	93.17653       	94.04235       	94.58568       	91.933556      	95.229454      	93.24883       	91.46147       	88.61652       	90.62149       	94.895515      	91.49531       	88.64377       	90.66569       	89.13574       	84.98363       	86.68311       	91.22405       	89.39305       	91.45666       	89.87562       	88.326836      	86.50196       	85.34272       	92.48467       	94.36211       	83.53106       	88.08955       	94.88829       	95.59108       	85.71691       	91.955086      	91.419464      	89.99833       	103.50432      	94.604774      	89.90404       	90.90825       	89.95056       	89.31766       	86.72628       	90.70972       	97.67799       	95.51045       	97.285614      	89.92673       	94.44302       	96.98527       	90.33463       	91.55058       	93.657906      	89.80561       	87.51106       	90.00851       	98.107124      	92.57487       	89.99244       	92.90363       	99.53383       	76.80433       	82.24459       	91.77548       	89.11141       	86.38082       	89.75278       	92.477066      	93.08672       	89.95231       	94.21779       	
91.85267       	94.35463       	97.31031       	98.89902       	98.41646       	93.91092       	96.788765      	93.31576       	93.16902       	97.71021       	97.967094      	90.89091       	91.302055      	93.111084      	90.86243       	92.20586       	92.1174        	96.237335      	98.99268       	91.58605       	88.83546       	95.35186       	95.37915       	98.45923       	91.87348       	92.37395       	101.51665      	83.99095       	87.27974       	87.480034      	92.02409       	94.134346      	89.867134      	88.21534       	85.07465       	89.42596       	94.43476       	93.84901       	87.0586        	94.48666       	91.451935      	88.476364      	89.47446       	92.422806      	88.78585       	91.165764      	92.08642       	91.82341       	90.45909       	88.030685      	90.126274      	94.22777       	91.93688       	87.64908       	93.08383       	88.117744      	86.57869       	93.79566       	87.906265      	88.91101       	93.40702       	94.48434       	100.70989      	101.45673      	101.46898      	104.66645      	113.15193      	91.316284      	96.89344       	99.342804      	91.13627       	92.177284      	96.27371       	95.98835       	95.31648       	95.43066       	99.19376       	97.43206       	96.75494       	97.11418       	100.18563      	98.666336      	104.69323      	94.93979       	98.08991       	97.735344      	98.91707       	96.97852       	96.57          	95.82844       	92.108116      	89.368004      	92.15443       	95.74031       	94.76086       	94.28243       	76.87918       	60.235012      	37.181385      	25.492807      	
88.905716      	91.67892       	94.46399       	94.50532       	95.87891       	93.103775      	94.72723       	100.81925      	97.17465       	90.89839       	93.531525      	99.72205       	103.855255     	90.60461       	103.411606     	101.00757      	94.39863       	91.59603       	93.21767       	96.99832       	86.61391       	90.26782       	96.913605      	95.15784       	88.65275       	88.36929       	99.25583       	86.23939       	82.38597       	91.76717       	94.92487       	95.92166       	88.36421       	96.6062        	102.58146      	88.60015       	95.27792       	99.3059        	97.569145      	89.81727       	95.14263       	94.234344      	88.804825      	89.40702       	95.1595        	96.90136       	94.01014       	94.39739       	97.41174       	104.25282      	92.50167       	94.3964        	97.602005      	93.31512       	89.83979       	90.93511       	90.87652       	93.805145      	91.31353       	97.15718       	93.07647       	93.98516       	95.431046      	102.46402      	99.83582       	93.1956        	99.493286      	97.73842       	96.04391       	97.020706      	96.487175      	96.45384       	93.93251       	93.83576       	99.204384      	99.9706        	89.4362        	92.56921       	97.20474       	92.27296       	90.166245      	92.633415      	91.916         	88.98085       	90.48744       	90.81377       	93.53004       	93.61515       	91.991486      	95.60456       	94.67          	87.49923       	68.28826       	35.665947      	18.922564      	16.334795      	18.187365      	16.286884      	13.955933      	15.648082      	
95.11447       	94.00294       	99.120895      	101.34628      	97.45064       	97.27094       	92.644905      	97.800835      	99.78694       	96.991806      	93.534836      	101.48087      	98.587715      	95.52253       	108.869385     	101.20772      	99.2999        	95.91816       	93.40195       	99.42176       	95.26491       	91.93202       	98.64356       	94.95602       	92.33346       	91.195         	96.40114       	91.719696      	85.64432       	92.39632       	95.30987       	91.580154      	94.58438       	94.03003       	101.38039      	95.24147       	93.71907       	95.320435      	97.5371        	94.39891       	91.41872       	97.027824      	90.48739       	91.08774       	94.861946      	94.95845       	98.348114      	99.81825       	98.53189       	99.55379       	89.55771       	89.74834       	92.672066      	92.4048        	89.53328       	89.77755       	90.35433       	86.51116       	89.36162       	84.81175       	84.82994       	90.52176       	96.934784      	94.57324       	94.196495      	96.06336       	94.97043       	95.73962       	93.742195      	91.246376      	91.18075       	96.39298       	95.58336       	93.91877       	94.81501       	90.76524       	94.55348       	93.672         	91.6936        	93.60585       	92.485245      	93.79666       	92.21766       	94.826775      	94.492546      	97.35157       	106.02197      	94.615974      	90.762505      	54.91885       	18.23772       	8.06875        	5.4705353      	3.2421412      	5.4427347      	2.982377       	3.7910008      	8.922528       	15.889612      	18.42176       	
93.449104      	93.203156      	95.90402       	97.76386       	97.48329       	101.83252      	107.55516      	102.32752      	101.76514      	99.43469       	99.3119        	99.495514      	96.415115      	95.92098       	99.75972       	96.30155       	92.23446       	93.649574      	92.827194      	94.495575      	94.11405       	94.81806       	93.798454      	90.78324       	96.763565      	95.04815       	89.13607       	85.700516      	87.8894        	89.451096      	95.03179       	88.364494      	95.97465       	93.5629        	90.27956       	106.67299      	90.84136       	90.55169       	94.88266       	96.73893       	95.6237        	92.2987        	88.49215       	94.18727       	92.00883       	90.15313       	95.35438       	99.50691       	114.08595      	108.656006     	100.94979      	95.71817       	88.21261       	91.18649       	93.11036       	90.36237       	89.45747       	93.94498       	89.7669        	86.40308       	83.63808       	85.811226      	87.80017       	89.14186       	90.5148        	92.18397       	95.13598       	85.977264      	90.38168       	95.06429       	88.21596       	89.90102       	94.41945       	91.473335      	84.17779       	94.51704       	90.30717       	87.7177        	83.769356      	100.74324      	90.27597       	90.85513       	91.51912       	99.89155       	91.8643        	88.24724       	97.94256       	94.91866       	41.0639        	10.577513      	-5.4711246     	-1.9576873     	-3.4399402     	2.2638934      	8.871524       	13.163601      	10.903565      	20.372465      	28.787048      	29.123198      	
97.8538        	94.29933       	96.233345      	97.33041       	95.01268       	93.807495      	99.88187       	96.82575       	95.69522       	94.467766      	93.68848       	96.855705      	97.65434       	99.23317       	100.178955     	95.01228       	96.606255      	93.862236      	96.741684      	99.39528       	97.75199       	96.37769       	97.663704      	95.937904      	97.718216      	97.08717       	104.955475     	97.88891       	98.18535       	92.40746       	100.232025     	96.31966       	91.721016      	100.86274      	92.5994        	92.96066       	96.36302       	90.69185       	95.86806       	94.77958       	91.762344      	90.4753        	89.68201       	91.75195       	91.93039       	91.52282       	91.93226       	98.05649       	94.195625      	89.72792       	88.54447       	89.79023       	95.72043       	90.728         	87.587         	92.08268       	96.26765       	86.325195      	90.60144       	101.8861       	97.65323       	92.853935      	95.164375      	94.183586      	89.06224       	93.32357       	96.260605      	104.4812       	83.14457       	90.81105       	94.40915       	88.80899       	86.0121        	98.196014      	93.36906       	93.3746        	88.44598       	100.19473      	91.39465       	90.83602       	92.56556       	91.5822        	89.56501       	89.630875      	96.18118       	89.45737       	81.32296       	67.01635       	29.26122       	12.044424      	-1.9067864     	1.5535886      	9.435749       	8.774451       	8.07955        	17.510578      	21.180077      	22.703846      	38.99969       	51.648983      	
92.67419       	91.2087        	93.2692        	96.60147       	93.764786      	95.456055      	92.120895      	91.81982       	92.4159        	92.62219       	91.17607       	92.94477       	92.30193       	90.06615       	92.133705      	96.274994      	97.991714      	98.454765      	100.721016     	99.077965      	92.392876      	90.28842       	98.184906      	96.767265      	96.2457        	96.15003       	95.363434      	93.81269       	85.80432       	84.37671       	91.585526      	87.19557       	83.34891       	93.107315      	93.06144       	88.83991       	87.68115       	91.02027       	93.5939        	106.66003      	114.80725      	102.53984      	97.2825        	92.790276      	92.00687       	91.04505       	90.8709        	91.304436      	90.08464       	90.77642       	89.891075      	89.17067       	89.32812       	90.59569       	88.52382       	90.52564       	94.000534      	89.654495      	93.38359       	88.871506      	91.815834      	93.69284       	95.468025      	91.04794       	94.81639       	100.546585     	99.45885       	112.375854     	115.08988      	103.35953      	101.817245     	99.58287       	98.26511       	95.225334      	94.770905      	93.47429       	90.59321       	91.60725       	89.39786       	88.73905       	90.39136       	85.33915       	86.589775      	87.4015        	96.48652       	93.36804       	88.90718       	61.317257      	28.941399      	12.041047      	-3.6919124     	-8.264851      	4.3036785      	14.153014      	20.682283      	19.817692      	20.642006      	25.318966      	38.1671        	33.37988       	
95.19505       	92.74472       	95.33477       	97.5461        	98.84623       	98.43714       	94.093185      	89.84114       	94.36181       	96.986885      	94.36698       	88.25798       	100.97295      	99.64619       	101.60869      	101.91002      	102.30388      	104.221115     	98.3859        	98.40388       	100.87903      	102.65003      	94.38536       	101.07312      	105.5846       	94.25538       	106.761024     	122.15576      	107.348274     	98.2019        	98.22958       	96.373695      	90.93457       	91.66582       	92.97726       	96.470345      	91.05753       	91.9487        	83.748985      	89.59347       	98.24154       	92.78476       	93.65933       	91.3444        	97.51572       	113.09002      	95.83219       	91.88445       	92.005806      	92.33887       	91.416534      	91.20389       	100.24307      	92.64183       	89.31983       	91.56514       	90.63429       	91.85114       	90.09737       	87.36905       	89.08123       	89.85739       	92.9453        	95.63126       	92.83261       	88.10731       	86.47743       	91.11231       	90.85924       	89.440475      	86.16757       	88.48044       	97.13428       	92.83205       	87.053764      	89.740364      	90.121124      	91.624176      	96.01439       	96.24288       	94.258194      	87.9251        	91.59753       	94.64964       	90.51704       	91.95475       	92.12653       	69.75905       	31.277895      	20.44638       	10.413838      	3.3771858      	7.4424086      	9.293596       	10.896125      	17.655804      	20.47745       	27.085695      	27.378277      	31.148853      	
93.655045      	92.69927       	92.15667       	90.81283       	91.5346        	94.90483       	97.72243       	100.69902      	94.186104      	97.035576      	97.86499       	87.95419       	93.01287       	94.66793       	91.81392       	89.3254        	94.26656       	94.137856      	92.09113       	87.69463       	97.65878       	94.334236      	92.255         	95.75168       	94.65801       	94.462166      	94.583824      	90.395874      	98.112625      	93.685715      	90.10478       	90.23632       	90.451324      	93.79644       	92.650635      	94.21862       	91.252686      	100.30505      	100.85164      	99.02462       	97.89125       	95.31255       	95.99069       	98.85271       	100.38355      	91.879524      	101.64994      	97.26773       	95.69544       	102.60371      	97.16338       	96.08032       	93.12017       	95.93051       	97.196724      	98.01472       	85.69792       	98.139656      	103.5038       	96.63714       	92.63819       	94.73813       	94.69608       	93.660194      	100.15543      	96.60156       	94.94498       	93.0031        	91.97633       	91.2395        	87.07315       	90.62491       	86.87024       	96.08343       	84.702934      	88.541916      	85.57471       	87.67537       	90.80359       	97.24378       	91.90828       	86.53883       	86.10908       	96.55412       	95.20492       	91.16825       	101.86398      	76.96164       	33.972214      	22.935598      	8.840605       	-1.2698258     	2.5142293      	10.523148      	19.565678      	23.96028       	23.867348      	25.963123      	32.673         	33.685307      	
95.61869       	92.76569       	91.51574       	89.95527       	94.727005      	96.44162       	93.17453       	91.75153       	94.35254       	94.083824      	92.95135       	90.556755      	93.954346      	98.5382        	91.12082       	98.19112       	99.384476      	99.317764      	92.57577       	99.03451       	107.30317      	99.189384      	101.76851      	100.27304      	97.30983       	91.950455      	97.211784      	93.72518       	95.65263       	91.45303       	86.675995      	95.25574       	90.93039       	87.6558        	94.56601       	93.07625       	99.06539       	93.57079       	93.19811       	88.08426       	88.91643       	91.50431       	92.09285       	90.506         	86.48363       	86.4484        	94.12802       	90.81128       	89.17472       	90.6018        	87.1758        	90.73939       	90.05217       	94.255806      	92.84703       	102.5618       	95.020256      	89.47658       	91.87064       	89.73715       	91.01018       	98.49536       	91.103         	93.0444        	116.75319      	113.46597      	107.25377      	101.44505      	98.37257       	95.12793       	90.93471       	87.4006        	87.291695      	88.3452        	88.164795      	87.096725      	89.10807       	88.222916      	88.46217       	90.674805      	91.92386       	90.90258       	88.08672       	88.83684       	87.89592       	91.70094       	95.37218       	83.18987       	42.75689       	21.23241       	13.09579       	4.1438704      	-0.47420022    	8.493159       	13.436558      	20.261019      	27.4002        	24.125988      	25.389954      	29.07141       	
89.36278       	91.84404       	94.89709       	95.312485      	92.852974      	91.12581       	89.88749       	99.162605      	95.649055      	95.72905       	99.62055       	102.81341      	94.18089       	93.72445       	98.74239       	96.28614       	92.4347        	95.697266      	98.21351       	93.51283       	88.88839       	94.8013        	97.00262       	91.0422        	94.48088       	99.67384       	94.6949        	91.45763       	89.58186       	93.941826      	92.93785       	89.725845      	89.53631       	90.74464       	86.08913       	85.09761       	89.90028       	86.5524        	88.10796       	88.80275       	92.627495      	92.04518       	93.32995       	91.86897       	94.86931       	89.0331        	94.809944      	98.92925       	86.21765       	93.12008       	93.16053       	90.982285      	98.22021       	93.24754       	89.09429       	94.58733       	89.51545       	87.97686       	86.429214      	52.958126      	28.555819      	28.360323      	39.96431       	63.46012       	95.852646      	123.90325      	130.85237      	123.81998      	110.24052      	102.93861      	102.347244     	101.665115     	97.33568       	97.24358       	99.12435       	96.03338       	93.720795      	94.70939       	94.353325      	96.90116       	94.065956      	95.836334      	99.93275       	95.16451       	95.30634       	100.232635     	96.940865      	95.166695      	71.188         	40.760696      	17.340513      	5.380374       	2.022906       	7.1010523      	16.04213       	29.72767       	35.90529       	28.557247      	30.172892      	44.16177       	
91.79231       	93.73474       	96.80485       	98.48587       	105.32354      	100.25485      	96.259224      	92.4653        	89.389046      	93.01729       	94.084366      	96.39534       	91.40433       	92.01842       	93.127426      	94.139854      	100.210075     	96.3699        	97.68802       	96.38622       	93.82777       	94.45011       	97.66554       	92.60873       	95.169846      	94.52782       	93.483025      	95.798775      	88.94568       	90.79174       	104.13085      	85.53619       	85.76073       	86.80326       	86.53094       	87.44838       	88.8554        	89.898476      	89.839874      	87.40374       	88.69991       	90.50529       	90.02856       	91.67201       	88.25792       	91.94681       	94.756516      	99.11031       	95.220505      	94.143906      	91.589005      	93.47784       	97.46148       	96.4537        	89.44062       	70.589         	32.70872       	19.618374      	17.421291      	16.471434      	0.04072924     	-1.3098553     	11.117115      	25.6779        	60.48002       	123.062584     	121.24195      	120.03064      	119.395065     	120.357285     	116.84781      	112.90984      	115.235        	113.71167      	109.266106     	106.8351       	113.59905      	108.3713       	105.62088      	104.3418       	106.74421      	103.110054     	99.0848        	104.58033      	104.736336     	100.33072      	99.36596       	109.07572      	91.732834      	46.451923      	35.50757       	25.075869      	12.029319      	14.021595      	22.030901      	23.993488      	26.873455      	31.370657      	38.758846      	46.189247      	
92.24443       	91.15947       	91.06266       	94.592125      	97.55468       	94.01831       	96.28805       	99.70296       	94.349014      	97.74284       	104.47172      	105.34957      	101.811195     	109.87111      	104.17318      	97.459015      	103.73511      	115.89163      	106.68181      	102.8513       	99.60733       	102.99679      	102.38726      	100.70365      	98.94877       	95.20988       	97.67916       	95.13481       	94.39855       	95.47043       	90.62627       	90.92058       	93.853096      	94.00024       	105.58179      	92.34801       	97.162186      	89.65337       	88.28035       	89.32092       	89.755135      	91.00308       	88.08044       	95.94721       	89.787056      	89.51293       	93.049614      	92.590324      	90.58536       	83.269325      	64.261604      	43.62125       	19.587858      	15.844358      	23.226854      	14.3051815     	5.521554       	7.336952       	13.586905      	7.8681927      	8.323174       	13.893601      	32.37506       	42.858994      	63.13174       	123.184685     	134.03738      	135.32024      	131.97208      	130.20148      	122.69621      	121.76922      	123.48209      	119.632416     	117.29863      	117.247284     	119.68607      	112.59185      	109.81323      	107.83329      	111.26852      	109.65319      	106.930214     	109.20019      	105.476105     	108.300575     	111.40224      	107.81376      	102.323524     	61.050247      	39.683712      	24.388134      	19.449215      	17.905064      	32.538548      	34.38056       	28.86385       	31.56965       	43.13436       	44.40756       	
96.23558       	96.5625        	95.89594       	100.14247      	98.665276      	98.22916       	98.18886       	95.056755      	94.19292       	100.933        	104.9432       	102.70829      	101.2876       	106.660164     	106.0028       	95.89225       	100.33183      	107.12807      	100.28392      	99.2991        	98.526054      	96.044586      	95.02027       	104.75471      	100.27123      	96.06773       	93.81392       	98.025375      	99.4571        	92.88912       	99.623665      	95.525185      	92.453255      	90.82247       	91.93519       	95.16068       	93.71441       	96.33656       	97.091965      	98.21419       	91.84929       	94.11665       	93.07799       	94.59466       	92.90378       	83.830154      	64.81125       	44.60112       	29.706839      	23.307413      	16.872269      	7.1413794      	12.633269      	18.369362      	8.28531        	13.453421      	18.133121      	20.68515       	17.790947      	30.038273      	30.308067      	33.20974       	29.990711      	54.450684      	81.86282       	114.05185      	152.81061      	154.36911      	145.57397      	141.41107      	142.13382      	140.58507      	137.25491      	131.52203      	129.98746      	130.37946      	128.39174      	127.13843      	121.210335     	120.54969      	115.367676     	120.328766     	116.04838      	120.35856      	117.87222      	116.33264      	118.49152      	119.03798      	106.94298      	63.47015       	44.017464      	30.961058      	25.13163       	21.19142       	23.85798       	25.47761       	31.639973      	39.874413      	38.94444       	40.36486       	
96.82502       	92.72511       	90.05476       	93.84422       	118.67948      	122.56368      	107.91025      	104.87223      	105.35406      	110.583206     	101.53128      	99.077835      	105.58488      	105.03446      	109.09521      	111.29324      	118.9854       	109.24107      	102.56658      	104.61406      	103.21674      	97.29825       	99.61323       	101.64005      	97.647675      	93.9358        	97.795425      	97.43173       	99.974815      	98.67083       	94.807144      	87.14682       	94.430374      	90.00563       	86.18046       	86.05867       	87.97674       	100.87206      	88.40447       	89.22917       	96.159836      	83.071655      	62.81384       	41.16937       	23.396797      	17.122482      	18.597263      	10.115275      	6.888006       	11.818678      	13.574223      	13.523573      	16.06084       	26.414814      	35.44309       	40.85166       	37.885654      	40.435856      	36.742493      	37.515404      	35.84088       	50.727276      	43.35297       	50.621426      	86.86107       	122.982475     	143.63797      	174.09082      	158.62291      	150.06714      	145.40239      	136.82492      	139.04877      	138.267        	134.84859      	133.02971      	133.46896      	126.71001      	125.427925     	126.018326     	127.29119      	118.6278       	120.894966     	125.00887      	122.24777      	118.01598      	120.54811      	134.3016       	124.945625     	78.34536       	50.491096      	39.88723       	24.250761      	19.170597      	25.3019        	32.961563      	29.910574      	41.72656       	44.0001        	44.641068      	
98.86699       	98.05246       	99.20412       	102.283676     	114.28175      	124.50069      	117.2703       	112.73015      	110.354645     	105.63614      	102.00072      	101.548325     	99.34823       	98.656975      	99.76583       	102.360435     	95.76088       	101.12572      	102.87027      	104.9666       	101.5666       	95.02862       	103.13143      	101.290634     	96.34471       	97.945786      	98.02478       	98.0988        	101.71794      	98.62142       	98.207184      	88.35711       	86.22975       	95.33793       	102.49394      	87.489914      	90.484726      	58.98877       	34.576393      	30.78073       	24.453539      	15.950109      	13.205244      	11.513971      	16.212341      	15.93103       	19.603352      	19.565         	31.743774      	36.04017       	38.105373      	39.084293      	37.576187      	40.9577        	41.231125      	47.137         	49.052853      	47.718365      	50.64697       	56.076275      	56.144558      	55.05973       	53.81283       	55.360916      	71.59774       	121.57524      	158.32697      	167.538        	153.21242      	144.26476      	155.63297      	148.22665      	143.31932      	143.6647       	141.32156      	135.92862      	130.58359      	129.17426      	130.11131      	126.54467      	126.03271      	122.561905     	124.26901      	122.266525     	118.35574      	117.646164     	118.38272      	120.26964      	119.57887      	100.652916     	55.47388       	40.641365      	28.593039      	22.47622       	26.159975      	37.040863      	40.08932       	37.20597       	34.096634      	43.056026      	
109.04227      	108.955864     	108.18249      	106.88965      	103.41012      	106.05431      	104.2021       	99.29571       	103.91668      	106.26115      	100.47194      	99.43417       	99.69783       	99.47208       	96.93523       	105.774796     	124.028206     	111.870636     	103.07254      	101.22388      	103.76046      	99.869156      	103.07279      	97.90799       	97.16546       	96.01985       	96.34903       	96.18175       	95.6501        	97.474236      	95.19884       	88.19905       	85.33883       	89.27218       	55.881836      	29.150442      	22.030027      	17.698109      	7.7852445      	12.459024      	11.165778      	8.828025       	10.714507      	17.743818      	16.328068      	25.549547      	26.38265       	33.687794      	40.004726      	37.926445      	45.59042       	44.907467      	53.912834      	50.050835      	47.840603      	51.62249       	57.834393      	55.01034       	48.716316      	59.481083      	66.754585      	60.919632      	58.157104      	58.90395       	69.98168       	103.6571       	160.30443      	186.34999      	168.23285      	162.49835      	161.12062      	156.29831      	144.57172      	144.58308      	151.55814      	147.45651      	139.2453       	135.33218      	137.66261      	134.5916       	129.40138      	125.00605      	127.9729       	129.2582       	126.574356     	125.335655     	125.468315     	125.54344      	124.94243      	115.017975     	79.91305       	51.851936      	38.861584      	27.144787      	24.855125      	29.237745      	39.6325        	44.235355      	40.195435      	38.2063        	
92.31098       	92.97566       	97.54634       	115.007675     	128.07275      	116.379974     	110.26519      	110.65022      	105.54404      	104.500946     	106.890495     	104.65081      	107.101036     	101.18095      	110.038765     	110.064        	102.7894       	114.9331       	106.18138      	103.28641      	99.76344       	95.14244       	103.602066     	103.166176     	102.804565     	97.92329       	96.69148       	93.225494      	100.12059      	94.15268       	60.88473       	30.677202      	17.773655      	20.895847      	16.34512       	8.900629       	13.796553      	28.891985      	26.750246      	24.005798      	27.328157      	26.56968       	27.691511      	37.4273        	36.88751       	40.39649       	40.15979       	53.989056      	51.63078       	53.078022      	55.562645      	63.72307       	63.97042       	65.94574       	61.548405      	62.151253      	58.729557      	64.90828       	59.183254      	64.02773       	66.82189       	67.684555      	68.7267        	73.42948       	68.45671       	107.85617      	151.74608      	192.19394      	181.77753      	174.87733      	167.03444      	162.0379       	153.06885      	152.21869      	154.04279      	141.84741      	137.17606      	141.09218      	135.37802      	141.79907      	140.33081      	129.90634      	129.59146      	128.5422       	122.95215      	135.9216       	129.80853      	133.98619      	123.6877       	115.90522      	86.73011       	53.14721       	40.07723       	28.441402      	29.915245      	37.260338      	38.380028      	42.861496      	45.067772      	47.335518      	
106.4462       	109.810715     	112.83573      	108.58676      	102.52591      	102.25148      	105.027176     	102.375946     	98.3685        	100.680824     	108.54567      	110.734695     	106.9435       	113.189835     	113.7135       	109.8316       	106.543655     	110.34191      	108.145256     	107.785416     	104.17046      	109.656204     	107.97904      	101.69345      	118.90337      	106.65275      	99.88508       	94.59261       	81.038086      	35.810276      	7.877672       	-2.423345      	2.2856436      	5.4340854      	6.5336423      	13.70212       	17.240345      	18.292868      	22.913898      	25.685595      	27.595116      	30.625624      	31.517546      	36.84704       	41.86645       	53.828712      	51.469894      	54.50724       	55.028603      	55.411934      	62.16994       	58.65703       	63.21633       	65.37562       	65.769806      	68.806816      	66.964615      	75.11042       	68.10007       	65.95948       	62.00669       	65.70933       	65.130646      	65.04717       	80.97376       	94.50697       	125.833855     	173.5488       	187.63467      	167.83861      	155.14413      	152.65149      	154.03734      	154.86597      	146.59305      	153.18562      	148.42755      	135.61226      	134.2434       	136.74194      	129.7419       	125.00838      	132.69102      	136.4015       	138.23302      	128.06116      	129.20348      	137.69467      	117.84744      	113.82137      	96.103386      	61.389977      	38.654827      	28.531525      	28.357796      	28.960613      	31.683144      	46.187847      	46.637783      	48.19753       	
102.85534      	103.24019      	104.35707      	105.18196      	104.894585     	102.83333      	105.28175      	101.162384     	101.62016      	105.91778      	107.80375      	103.32625      	93.37306       	98.86508       	98.36427       	105.347626     	112.56825      	107.33184      	103.54923      	97.31905       	106.28761      	103.15584      	99.14701       	104.21795      	102.94965      	100.430626     	103.46167      	95.19238       	44.16194       	16.154015      	1.5667464      	4.3238544      	10.435552      	10.930902      	16.246634      	22.73795       	29.56624       	31.909864      	35.066807      	47.369534      	41.856777      	43.05408       	49.765785      	49.27263       	51.63099       	48.489887      	58.95014       	57.383217      	50.486652      	60.481804      	63.14481       	62.70834       	66.034515      	67.27467       	70.093124      	61.4678        	68.20568       	71.31755       	68.892265      	71.2246        	68.938705      	76.68611       	69.19567       	66.647125      	68.33171       	89.5186        	120.15817      	161.67407      	189.43907      	170.08008      	161.2855       	169.33919      	155.12767      	151.35406      	142.52147      	146.80243      	145.25363      	139.64359      	132.62906      	139.4144       	127.34413      	123.927574     	129.8025       	125.49007      	123.755        	124.28789      	131.54234      	124.00156      	123.06341      	120.713715     	103.722496     	57.564434      	44.322044      	33.084103      	24.95913       	24.130123      	27.663023      	43.112915      	46.661476      	53.579544      	
101.843185     	102.379395     	111.52438      	118.38128      	117.00573      	115.71297      	110.54184      	106.66146      	105.740326     	107.72978      	105.82112      	102.94686      	100.23707      	102.516815     	107.38858      	97.50491       	90.51887       	97.647026      	100.3716       	91.8925        	88.35259       	98.55244       	115.26027      	104.43737      	116.591866     	111.43842      	101.1805       	63.80178       	36.524082      	27.397047      	13.255869      	7.684122       	14.260099      	18.592558      	18.13579       	23.249767      	34.064964      	31.731703      	35.177364      	43.27117       	47.724453      	45.18312       	43.791367      	56.77628       	54.9206        	49.917538      	56.209507      	61.534386      	68.05814       	67.254654      	64.39174       	61.005188      	64.725296      	68.07081       	69.13704       	63.644794      	68.573746      	70.62947       	77.03444       	78.02365       	65.8987        	67.36982       	73.98937       	65.9648        	63.78298       	80.871414      	119.987564     	161.20358      	194.67117      	179.17764      	176.16078      	168.30255      	163.96869      	157.79533      	149.95935      	151.47653      	144.63199      	148.27356      	138.88654      	134.38443      	134.86127      	136.9014       	132.2479       	131.45137      	129.78304      	123.58127      	125.32842      	125.32858      	126.19109      	122.049194     	107.829155     	68.62031       	45.76007       	34.163876      	25.189121      	24.464487      	25.114449      	35.169167      	41.887802      	42.758286      	
107.71293      	106.94213      	107.16106      	117.18388      	116.04769      	111.85281      	115.3616       	119.32818      	114.590324     	112.58037      	112.08545      	110.702286     	101.09687      	101.838135     	109.252945     	100.286995     	107.001274     	104.84428      	101.62481      	97.48206       	94.12021       	98.36801       	101.772896     	92.96204       	97.83988       	100.26168      	99.47163       	51.737038      	28.649473      	18.355715      	11.107472      	6.61214        	18.569014      	20.243206      	18.908894      	24.47588       	35.200783      	37.28631       	37.46489       	42.339092      	38.460434      	37.700584      	40.13539       	52.209965      	57.085735      	51.582558      	57.822414      	60.026382      	60.975098      	64.96265       	64.37023       	70.42573       	70.44372       	67.409904      	68.786674      	71.8413        	67.21732       	67.58013       	68.581535      	69.00017       	69.06618       	67.40339       	66.29979       	63.298477      	65.2153        	66.74219       	87.95639       	137.26128      	192.79631      	179.76048      	162.79169      	153.46313      	155.9017       	153.53362      	148.91286      	143.3598       	145.36029      	144.64873      	132.97386      	133.44432      	137.2585       	130.15353      	130.3367       	126.09899      	128.80869      	128.40538      	125.39711      	124.487175     	124.245636     	120.971176     	121.161385     	86.23657       	56.02909       	37.361572      	22.86757       	21.893667      	24.263388      	33.720848      	41.3265        	42.481194      	
101.74287      	103.23791      	112.46785      	118.01688      	106.19139      	105.61894      	112.94836      	116.067024     	115.97214      	111.41414      	111.355484     	112.09541      	107.86105      	106.03113      	107.86004      	106.15401      	102.53525      	102.8768       	98.88991       	102.85522      	102.31178      	115.80671      	106.256226     	106.56081      	102.68847      	101.025276     	103.65095      	63.63826       	35.364567      	24.816545      	8.64604        	4.0758805      	10.245451      	15.074888      	21.048983      	25.401752      	28.563446      	30.581787      	35.596237      	41.172886      	38.915485      	40.464806      	49.34059       	49.118668      	47.754963      	50.297207      	53.124443      	58.549477      	56.074         	61.116646      	63.148308      	60.83596       	59.935814      	64.27288       	69.410126      	66.43684       	66.427505      	70.625015      	69.56749       	67.605835      	63.55097       	68.81416       	70.4345        	66.29308       	64.879105      	67.10657       	91.73744       	129.81073      	181.91992      	191.39967      	178.94614      	163.88396      	162.25636      	160.4484       	147.80128      	147.72087      	145.89209      	151.00485      	143.63869      	139.94164      	137.47995      	134.8823       	133.23589      	134.37668      	129.2499       	124.37235      	126.08365      	129.1686       	120.14051      	123.336685     	117.27595      	90.322914      	48.918564      	36.779484      	28.953579      	24.66338       	28.302198      	47.399113      	41.59118       	36.11879       	
96.71744       	95.56352       	99.8254        	108.973885     	109.616486     	103.99574      	106.11935      	105.62956      	99.95334       	104.357124     	102.91398      	105.73137      	102.99632      	98.17988       	106.54203      	103.15772      	100.11776      	98.33648       	99.74456       	99.66056       	97.55284       	97.4613        	109.37739      	110.41359      	101.92946      	104.32909      	108.698105     	95.67721       	46.118843      	26.799227      	16.415895      	4.9656954      	4.4510756      	15.234122      	19.04054       	21.621786      	25.3972        	31.078392      	37.152805      	41.909912      	47.117336      	54.841774      	51.64495       	52.334763      	55.42626       	57.13944       	50.000298      	58.44779       	68.217476      	69.0973        	64.604706      	66.15874       	69.32349       	69.88377       	67.2181        	71.90148       	73.908485      	73.090706      	72.59504       	72.89465       	74.90561       	65.62345       	72.702934      	75.62133       	60.024055      	62.622826      	88.615585      	121.29636      	156.71718      	188.99342      	171.8041       	173.37457      	158.5691       	153.60316      	148.64806      	148.707        	143.78038      	137.59958      	139.5512       	135.39098      	134.85263      	135.76263      	127.398155     	123.14301      	123.935905     	131.78418      	124.62752      	123.4232       	125.50973      	125.863945     	118.26962      	95.83834       	61.77389       	48.251427      	27.757168      	19.024464      	23.983135      	29.052053      	42.59377       	63.59131       	
97.81098       	99.76637       	108.81573      	122.484695     	119.85551      	110.855415     	107.89539      	104.00505      	105.75587      	106.41708      	105.85938      	111.526566     	104.73612      	107.79853      	102.176834     	104.99984      	104.548836     	101.59261      	97.89001       	100.61117      	96.60513       	100.04015      	100.70008      	107.12186      	96.42921       	102.48922      	109.848145     	99.9686        	62.127434      	33.804626      	21.117153      	9.576801       	5.2013354      	9.859929       	20.227407      	28.005178      	37.369156      	39.176003      	39.155987      	36.13305       	36.20681       	47.6431        	56.92781       	47.47378       	49.211544      	57.932373      	51.32209       	57.12347       	59.64968       	59.95963       	61.731625      	67.49142       	67.95677       	61.539944      	67.280495      	83.812775      	67.66972       	68.30219       	70.668915      	65.878006      	79.03874       	72.517525      	65.42027       	70.78273       	79.871994      	75.42676       	93.80488       	122.5658       	148.38837      	186.2133       	176.99031      	170.51807      	160.23366      	154.57959      	151.45328      	147.46472      	138.20753      	142.14214      	140.06339      	141.71971      	135.90308      	133.43497      	132.60995      	126.177864     	125.587296     	130.17078      	125.84478      	129.22958      	126.226395     	120.60245      	126.525444     	108.66326      	57.973152      	44.03909       	33.305874      	28.174793      	30.279497      	28.554462      	31.70148       	40.303677      	
38.926907      	41.959904      	54.050236      	77.61233       	112.068184     	155.32861      	151.07779      	144.2567       	135.34927      	131.90944      	134.4166       	130.08633      	127.42614      	117.611496     	116.03667      	118.07392      	118.61192      	113.190994     	115.380005     	108.36134      	109.86221      	124.55026      	117.379875     	113.93441      	123.59525      	128.05984      	129.94205      	121.281944     	76.20177       	40.542416      	30.361385      	19.82436       	13.2937155     	17.086517      	28.18818       	37.046196      	35.1393        	39.928085      	51.676517      	46.76695       	43.064518      	44.722347      	59.788124      	73.127106      	67.432396      	60.66213       	57.83368       	62.91105       	63.84031       	73.60011       	62.91691       	65.28614       	62.700603      	66.832214      	66.93954       	64.8695        	69.901985      	69.2765        	70.06574       	66.67709       	69.75862       	59.94091       	60.553875      	58.9047        	74.687675      	62.47644       	76.70452       	107.582436     	155.37491      	176.87503      	168.22887      	170.42009      	163.03752      	156.95424      	155.35051      	157.27695      	151.88937      	137.46365      	141.90059      	140.24452      	135.34569      	129.91623      	134.13292      	130.15619      	125.3099       	128.71057      	139.39592      	132.28036      	119.2725       	128.28223      	129.8318       	114.45851      	76.71275       	57.863117      	40.16067       	24.06422       	27.207664      	37.172802      	48.51021       	47.02868       	
46.264854      	50.50482       	54.80656       	78.25203       	108.65112      	164.18521      	172.23195      	167.67677      	161.25853      	149.19739      	143.3652       	144.94138      	138.87112      	133.76834      	139.84244      	141.43343      	131.48148      	131.40501      	140.66005      	128.65984      	127.1133       	127.804756     	129.22545      	130.75932      	124.4034       	124.72054      	131.31831      	124.85643      	108.22224      	69.268135      	50.147568      	33.8801        	24.912514      	27.297533      	28.285336      	35.585575      	46.297092      	47.49847       	46.71154       	48.04345       	52.587845      	56.18322       	54.201984      	56.866306      	58.75794       	58.679237      	59.96041       	64.19574       	77.94959       	77.29003       	76.159065      	77.06101       	72.19137       	76.90695       	78.42483       	77.074875      	75.93529       	82.483505      	79.483955      	75.042206      	76.74914       	78.72449       	68.15557       	75.81219       	77.98929       	71.55419       	76.443756      	105.10826      	142.28429      	194.15063      	185.8531       	167.06093      	162.1958       	159.62477      	152.02686      	145.67421      	151.84633      	142.30357      	142.56287      	141.04782      	135.33282      	130.45583      	131.5742       	130.4743       	134.48354      	123.40053      	124.91394      	128.67699      	129.59651      	120.81145      	118.88351      	130.91         	91.422104      	57.17492       	44.27411       	31.532074      	24.581749      	23.394417      	39.49967       	44.996136      	
48.52386       	49.87609       	54.289448      	71.22144       	100.56194      	157.67804      	182.23444      	171.74129      	171.00871      	163.91063      	160.12883      	152.80748      	153.41905      	139.06775      	138.02771      	139.06367      	143.37355      	135.9973       	135.69547      	135.41347      	131.09482      	127.09293      	132.20656      	129.6915       	125.858734     	121.739624     	125.25107      	131.90356      	118.51774      	69.270676      	49.198895      	38.670315      	35.86102       	20.26755       	24.343456      	30.60075       	40.07223       	38.202713      	48.427162      	57.109783      	57.096504      	51.604286      	54.646683      	56.97443       	58.53434       	61.896885      	59.41933       	66.07325       	65.58941       	64.867905      	69.50069       	73.71678       	72.4969        	69.17279       	70.764114      	73.49108       	70.25037       	69.44514       	77.458145      	79.310074      	68.37701       	68.287384      	71.326904      	73.43749       	70.94841       	82.64684       	72.85163       	85.22335       	118.60971      	165.0239       	185.37701      	166.67526      	167.77956      	162.53783      	157.39977      	151.93484      	146.26001      	152.79617      	142.1224       	140.14021      	137.59431      	134.47916      	130.3185       	129.3381       	128.23502      	127.38325      	123.1194       	130.10963      	125.35239      	126.428055     	120.21107      	124.428154     	103.349335     	61.04266       	44.522522      	39.99102       	33.284134      	30.82244       	33.671265      	42.684284      	
49.70343       	49.853783      	55.667667      	75.45665       	106.11572      	148.40134      	179.20215      	171.43446      	169.18228      	162.3133       	155.32384      	150.52254      	154.73396      	152.17337      	150.81918      	156.4578       	147.81168      	142.98358      	139.44792      	145.13835      	139.02467      	136.17111      	138.87195      	136.98245      	140.63788      	134.55373      	124.81468      	130.65805      	126.03067      	87.28095       	53.318504      	38.714027      	28.908098      	22.453402      	25.918753      	34.408527      	38.962124      	42.130802      	58.084587      	49.18931       	53.72018       	49.200947      	56.816074      	57.40419       	53.460453      	58.052456      	62.390556      	62.301167      	65.32214       	66.15797       	67.42322       	68.36407       	67.86417       	68.90663       	71.130905      	65.30307       	67.33127       	71.686165      	67.367256      	70.30044       	71.69482       	71.6513        	67.10482       	67.82797       	69.24261       	61.909866      	68.32438       	71.21192       	100.83388      	158.71542      	176.19987      	169.37866      	170.02267      	156.20125      	155.45651      	151.69293      	151.2816       	144.71783      	143.84183      	143.35036      	141.74413      	136.769        	139.37587      	138.18556      	132.5737       	129.14389      	130.64398      	126.147385     	123.677086     	124.53496      	127.15768      	126.27091      	114.04118      	74.82291       	52.31346       	36.246284      	28.813408      	28.1545        	31.438175      	38.23136       	
49.133457      	49.45066       	53.014         	69.57984       	96.48211       	144.16646      	167.30203      	174.4558       	164.30186      	168.36385      	157.59308      	164.65146      	153.12677      	144.15575      	139.75015      	152.86295      	157.48302      	146.308        	138.99042      	133.38211      	132.27322      	133.2391       	137.9567       	142.95647      	134.13779      	128.06029      	123.34579      	123.09082      	124.55972      	107.885574     	61.16014       	41.68962       	31.671406      	23.519789      	22.296938      	31.179142      	38.520893      	38.98176       	37.736034      	50.787987      	46.534275      	48.461277      	52.31244       	54.361702      	60.277912      	54.742283      	58.072834      	62.835747      	61.93567       	64.1241        	68.42744       	71.74383       	72.0508        	72.91662       	79.70763       	71.74989       	73.920166      	75.35052       	77.53437       	72.81845       	72.76851       	71.67819       	74.01485       	75.57925       	70.11          	71.65268       	60.701294      	64.54948       	85.05919       	143.57904      	183.34773      	170.03906      	169.79738      	169.81784      	157.74733      	150.81354      	150.79175      	145.41237      	147.41182      	142.49008      	140.78857      	141.51712      	140.70511      	133.71542      	129.58707      	130.1474       	129.99243      	132.00203      	127.99191      	126.81447      	127.212654     	128.26758      	119.38171      	87.26074       	55.604927      	45.311028      	34.49183       	31.320076      	34.32142       	38.476536      	
54.004276      	52.72795       	57.56505       	69.71227       	93.14482       	136.9773       	181.98631      	179.56146      	167.79796      	163.57306      	170.57762      	177.90033      	163.42154      	156.4956       	145.55336      	149.05919      	145.43474      	139.07161      	134.429        	137.15231      	132.16759      	134.70523      	126.21429      	137.8333       	125.75616      	123.702385     	123.69486      	119.95065      	123.4495       	118.006645     	76.4142        	54.239964      	41.12355       	29.26526       	26.578392      	33.31881       	34.568233      	44.35775       	50.008953      	43.95906       	49.410824      	45.69751       	54.504387      	56.647         	56.03818       	54.315777      	62.6553        	58.862186      	59.902645      	59.21907       	63.327045      	64.13994       	66.13663       	66.28274       	68.8404        	82.44427       	76.12811       	68.98736       	66.08064       	73.336586      	73.43552       	74.65774       	69.84957       	73.27062       	70.8048        	66.462234      	61.68984       	64.01393       	87.59191       	135.62038      	164.29774      	176.95312      	162.09079      	156.93904      	153.96017      	148.82814      	143.48001      	143.67226      	138.44107      	142.24274      	141.06407      	145.69872      	128.47171      	126.24955      	123.18356      	125.84394      	127.96971      	130.23167      	120.04044      	118.40146      	123.93486      	122.79569      	124.36405      	89.23303       	58.33877       	46.868355      	33.968803      	30.178995      	34.37487       	29.645601      	
55.27136       	55.55556       	56.166245      	69.942535      	90.63862       	114.8027       	157.08755      	185.19943      	173.35483      	170.90837      	155.85085      	169.81847      	170.20851      	156.27931      	149.53596      	141.01152      	141.48077      	135.23354      	128.61679      	128.57797      	141.3263       	152.91751      	139.45299      	127.22002      	122.68456      	117.710815     	121.99254      	126.590485     	124.494705     	124.55495      	90.45162       	55.455566      	37.683918      	26.86806       	29.048075      	29.908169      	34.068558      	38.729534      	42.824226      	44.358112      	44.06465       	51.979424      	48.380867      	50.625507      	54.55921       	50.767517      	57.085125      	61.50973       	60.943237      	63.777824      	64.87438       	62.38314       	64.7261        	65.20435       	67.61778       	66.780136      	64.731735      	73.45851       	72.41629       	72.46431       	72.268364      	69.45876       	68.47807       	73.26973       	65.736824      	70.70351       	67.289665      	59.89695       	83.07678       	123.13284      	171.88068      	190.94197      	175.35504      	166.6906       	158.18468      	156.35538      	149.83597      	144.10153      	146.05942      	142.6849       	136.98021      	135.52495      	134.09952      	133.57748      	129.12326      	126.87911      	129.12527      	139.91057      	125.541885     	128.1547       	129.30548      	119.66984      	121.72165      	93.34648       	57.988506      	39.43296       	23.749552      	19.660389      	20.181509      	27.380178      	
50.10267       	48.87907       	52.056416      	58.35414       	67.641266      	88.82403       	141.87614      	176.6435       	170.67706      	161.24316      	157.04053      	149.38884      	151.9094       	150.84601      	136.87169      	137.4158       	134.39891      	134.4962       	129.2876       	126.40751      	132.00446      	126.43865      	119.06003      	122.214        	127.92362      	115.6812       	117.438805     	124.3117       	120.02592      	117.141685     	70.3229        	51.119473      	37.95571       	16.6219        	16.685091      	26.42236       	37.08854       	38.539646      	41.141262      	51.71206       	46.993187      	56.705605      	68.906136      	60.151043      	68.012505      	61.743504      	58.842827      	68.38464       	59.85527       	59.553505      	65.392136      	68.808105      	67.55919       	67.67279       	70.21742       	69.96233       	69.84252       	67.19284       	73.93816       	72.460014      	71.51169       	74.84197       	72.77436       	75.24947       	71.82958       	68.98495       	74.92082       	77.04238       	87.96049       	116.47533      	165.22491      	194.12181      	175.13647      	168.74083      	160.60585      	154.89476      	156.59189      	148.46115      	146.53777      	140.91277      	138.37527      	135.88943      	143.39691      	138.98428      	125.588715     	133.01833      	132.68489      	123.71524      	124.03887      	127.855965     	127.481514     	124.57579      	121.64824      	118.57397      	66.142685      	39.120224      	29.819206      	22.09028       	19.910494      	26.901356      	
57.19462       	53.05343       	52.307         	57.373184      	77.78057       	102.85934      	140.153        	173.98105      	178.68677      	162.04196      	158.50937      	149.35606      	156.52289      	152.37328      	151.56729      	149.39496      	142.72537      	138.91339      	133.37994      	144.2567       	137.85362      	129.12384      	121.58367      	129.64047      	144.33704      	136.9756       	132.97037      	128.00534      	123.92913      	123.9404       	91.11984       	54.6687        	36.63503       	23.37742       	24.446238      	28.450026      	30.518217      	32.343513      	44.9987        	48.31822       	47.644405      	43.169792      	50.28298       	41.85397       	50.528633      	61.1578        	56.37452       	71.00396       	71.88291       	86.57433       	75.88646       	68.14671       	76.690865      	72.36964       	71.996315      	67.58404       	78.17235       	94.89129       	72.64903       	73.57219       	75.60747       	71.10458       	67.59909       	68.36641       	73.117546      	67.41106       	64.63204       	63.087543      	71.79771       	96.52607       	145.67915      	186.12518      	173.01155      	161.00035      	154.30122      	154.04158      	151.10133      	141.86617      	147.59763      	139.99391      	136.88657      	135.40048      	138.13068      	134.35506      	133.02228      	130.00853      	132.10559      	124.615036     	121.28441      	121.53242      	122.298615     	121.25047      	119.75042      	116.3639       	77.14902       	47.044533      	43.188072      	44.632957      	44.92696       	37.720974      	
55.035038      	54.945766      	55.605007      	59.931236      	77.790276      	101.732285     	129.27292      	169.31647      	180.74628      	169.5355       	165.63312      	158.30022      	158.3088       	152.31908      	143.38948      	140.37427      	141.91896      	137.8336       	133.56268      	143.40318      	138.69125      	137.15189      	127.77731      	124.394516     	131.38918      	128.17145      	124.34323      	121.96325      	117.45777      	123.59272      	105.23691      	59.9244        	42.914787      	33.787003      	27.113081      	24.778053      	28.557596      	44.018875      	42.10045       	49.378426      	51.912533      	53.85384       	57.142338      	52.169724      	53.867756      	57.19399       	55.83158       	55.911247      	51.972603      	55.871887      	62.384087      	64.09014       	66.12565       	67.32516       	75.21361       	66.01236       	69.24322       	72.27766       	70.13578       	67.55298       	71.11164       	73.329475      	67.43404       	64.96381       	66.497665      	63.926163      	65.60159       	62.15068       	64.891914      	79.562874      	133.74586      	188.44852      	183.28777      	161.52773      	157.80222      	158.53928      	152.58147      	149.1786       	147.254        	143.8715       	139.26591      	135.42027      	134.74004      	135.447        	130.77568      	123.67909      	131.66472      	130.69998      	122.25982      	121.542885     	122.172356     	120.42381      	117.4829       	119.38807      	97.84545       	81.37235       	72.277504      	68.504425      	59.855206      	50.19145       	
57.41939       	57.947407      	59.687416      	67.64421       	76.693596      	89.79131       	113.69601      	162.47185      	188.53906      	172.95724      	160.27109      	155.9692       	158.93303      	152.44284      	141.87648      	144.5725       	143.09537      	142.92136      	153.74803      	142.88301      	131.16315      	129.88437      	137.81387      	126.203705     	124.20391      	119.989        	118.0255       	120.08849      	123.06592      	126.07726      	121.669556     	82.147514      	50.439114      	37.378334      	25.520573      	23.327576      	25.296726      	29.911163      	40.067215      	33.986416      	39.252895      	57.57137       	61.29417       	62.31697       	46.01043       	60.875732      	64.89384       	58.911236      	58.469883      	59.833378      	62.245888      	62.651497      	64.83772       	61.426926      	64.56339       	68.83316       	67.811935      	71.2764        	66.493744      	67.83957       	75.14361       	72.47545       	68.942276      	67.6711        	73.79625       	71.620285      	61.127754      	58.805         	71.10179       	73.81512       	108.33577      	161.92567      	174.19122      	163.99146      	158.6559       	161.33188      	152.97658      	147.02412      	146.90872      	144.55975      	137.93024      	130.73097      	138.02603      	138.80185      	131.38034      	129.41615      	129.06909      	130.63737      	126.70141      	135.32991      	132.9218       	121.99075      	123.35057      	125.191154     	123.92152      	125.065544     	103.78917      	80.40772       	73.353226      	65.39938       	
57.882225      	57.656723      	61.12767       	65.60476       	69.62514       	84.16932       	101.70983      	143.05862      	184.03786      	169.2258       	161.63661      	154.1869       	149.48184      	151.47635      	150.54652      	145.22302      	140.68668      	141.49539      	137.23451      	136.95244      	132.71896      	142.25922      	143.84666      	147.67758      	132.85529      	126.10332      	125.14681      	119.05063      	121.468506     	120.34957      	122.58112      	93.63733       	56.481907      	38.831406      	26.458935      	21.61096       	26.292006      	31.615177      	36.903793      	37.9291        	34.457752      	49.415474      	43.60905       	49.720108      	60.010113      	53.331596      	58.70105       	60.58143       	55.23494       	59.96325       	62.793613      	59.722694      	69.20798       	63.878567      	61.82715       	67.32319       	64.25625       	70.569565      	72.280426      	67.55748       	72.134995      	73.26614       	71.38045       	73.763054      	70.30088       	72.96704       	71.16784       	65.09881       	73.59399       	79.52525       	98.89661       	151.56708      	194.24506      	172.1677       	162.31949      	160.45354      	157.34123      	151.77081      	147.04584      	147.01097      	143.34335      	138.73004      	139.20384      	137.39061      	130.80104      	128.18808      	128.3544       	128.17343      	127.05604      	128.67549      	122.55325      	129.28572      	133.0568       	119.904465     	122.399796     	120.77504      	114.49599      	86.95253       	98.26802       	92.607574      	
57.97959       	57.685898      	57.360886      	59.2891        	61.51462       	71.044044      	82.582855      	134.5029       	169.5857       	174.05061      	160.37119      	156.99417      	154.9114       	153.63304      	150.0245       	146.67136      	142.57889      	146.87476      	139.29515      	140.4474       	135.24419      	130.11656      	135.56892      	130.98543      	122.98699      	124.41918      	126.319786     	123.30107      	119.6127       	119.77571      	124.42435      	105.078476     	64.08548       	48.554836      	34.795353      	23.69003       	26.913593      	33.21085       	34.06934       	36.88151       	46.440105      	53.295753      	51.86843       	46.080654      	70.34575       	58.18642       	52.151035      	55.308144      	60.814865      	72.47661       	60.329247      	64.75003       	68.22351       	70.025734      	67.813324      	75.18087       	71.042         	71.017975      	73.15185       	70.54858       	71.96168       	71.99266       	70.11159       	74.29679       	74.49572       	67.173065      	68.68168       	67.88649       	64.63294       	68.058846      	94.72982       	136.68478      	183.2103       	180.38477      	169.13731      	161.73795      	152.2503       	151.20322      	148.69623      	143.84917      	149.47868      	148.02953      	134.1974       	140.64957      	138.39676      	134.9186       	137.0781       	129.88185      	130.12053      	127.28294      	124.731094     	129.08694      	127.814415     	120.05893      	127.52515      	126.607056     	122.50587      	119.17315      	120.87723      	117.69636      	
64.45164       	66.555725      	66.45942       	70.18668       	68.47313       	71.813126      	85.434006      	119.25456      	174.3609       	186.43048      	171.85568      	166.9519       	162.25523      	156.29279      	150.50955      	150.42052      	144.37042      	142.59549      	138.2954       	133.93178      	137.62923      	132.88695      	131.68727      	125.62777      	122.708664     	123.305435     	124.677574     	121.07171      	124.09584      	120.08098      	127.727        	122.30392      	73.40007       	47.46818       	39.407776      	27.15743       	23.55546       	30.77293       	35.802704      	37.683243      	39.608364      	47.81185       	49.27668       	46.661705      	54.496784      	56.178852      	55.90745       	55.03336       	56.083817      	68.79379       	86.9322        	75.51916       	72.030685      	70.79936       	70.24915       	70.66383       	70.474785      	73.93303       	71.122574      	72.755615      	70.536865      	73.1367        	66.373955      	69.61101       	71.736084      	64.69763       	66.386345      	67.46898       	65.5349        	61.977943      	81.52145       	124.14359      	154.85655      	183.5488       	165.75938      	159.87305      	152.50809      	139.5772       	143.04858      	145.46454      	139.98853      	137.48         	140.37813      	140.56569      	126.068535     	128.58975      	128.51973      	128.10115      	122.26002      	125.36385      	129.1126       	119.25049      	124.53432      	129.27141      	125.757416     	117.158905     	122.39104      	121.27669      	113.346596     	109.23755      	
60.046204      	61.36531       	61.378056      	64.557724      	65.17397       	76.84289       	89.98295       	108.087906     	155.56747      	187.3339       	178.70331      	169.20465      	169.66574      	156.75021      	155.45857      	155.29506      	143.53018      	139.39285      	141.44789      	135.74057      	130.29355      	127.579315     	130.83853      	132.24712      	123.117325     	123.15922      	128.82706      	126.895004     	126.30821      	122.83912      	127.69471      	123.67638      	81.279015      	55.121704      	29.417433      	21.48688       	24.29742       	31.638903      	44.06691       	50.695816      	40.79208       	47.518967      	49.149723      	60.372322      	69.626114      	59.763332      	57.998238      	58.442505      	56.67469       	60.687275      	60.14207       	62.653423      	60.985703      	64.16603       	64.306366      	65.89255       	65.44787       	65.61906       	68.9868        	84.437584      	64.69766       	65.472         	72.05627       	70.63861       	70.30311       	66.234055      	67.98305       	60.746826      	65.78943       	71.9231        	67.73848       	104.17736      	155.12544      	192.25041      	172.99734      	164.3654       	158.79507      	152.6911       	151.98788      	149.03351      	145.70168      	142.39943      	140.83498      	137.5126       	136.10886      	133.93349      	136.68611      	134.54903      	126.81163      	127.37885      	127.75834      	126.5722       	123.71368      	124.02316      	119.508415     	121.779976     	128.47455      	116.47366      	113.27817      	115.76492      	
59.46171       	58.604225      	62.48268       	70.41832       	73.504105      	70.67949       	78.1997        	97.43408       	137.17027      	182.14877      	176.00587      	158.10336      	158.36203      	164.72946      	149.88078      	145.42206      	148.78969      	144.96335      	138.88762      	139.2215       	140.07437      	133.59505      	136.69054      	137.13174      	129.82336      	124.36773      	124.480415     	127.10622      	123.9672       	120.35646      	130.21915      	115.315704     	63.523766      	41.072517      	34.43389       	27.808702      	22.323515      	29.013142      	32.453262      	39.809055      	45.696835      	48.103214      	48.670975      	51.561546      	52.374737      	53.550743      	56.721554      	61.884285      	61.487976      	62.51934       	63.75672       	65.34459       	65.286026      	77.16519       	72.35622       	72.97196       	71.18499       	71.520256      	71.29058       	73.75764       	71.821396      	73.78498       	70.508804      	70.03678       	68.95981       	69.26417       	61.092445      	74.06525       	65.642746      	71.20192       	64.38758       	87.13249       	141.21861      	183.68968      	191.63867      	175.13602      	162.51633      	162.09627      	158.74104      	151.14967      	145.6872       	140.33725      	143.8711       	146.96625      	139.09431      	133.79393      	132.02016      	129.29314      	135.36201      	128.78574      	127.807014     	129.28883      	125.0127       	122.81548      	115.46537      	119.27672      	131.793        	117.855354     	117.78837      	122.28175      	
68.11728       	67.82089       	65.72337       	71.406685      	71.25075       	66.5815        	78.55981       	102.39925      	132.19138      	161.55043      	186.5071       	172.90096      	165.52406      	160.89304      	159.25662      	149.86661      	144.28485      	143.68289      	143.66617      	138.61124      	140.638        	138.19777      	135.3375       	130.05588      	129.60286      	131.08498      	125.88245      	127.289566     	129.26688      	128.24805      	122.167725     	126.89686      	86.18738       	51.62555       	40.4493        	37.076298      	32.484646      	35.203712      	40.551613      	46.686153      	45.655003      	48.943886      	50.780235      	66.648865      	53.187706      	58.675034      	61.083496      	60.057755      	57.392143      	61.399113      	66.79961       	64.71402       	65.32282       	71.37753       	69.6425        	64.038925      	70.53482       	71.79937       	69.62448       	67.85954       	68.67426       	71.13411       	69.61844       	76.99706       	81.88754       	72.72669       	83.72661       	78.37755       	83.79926       	89.599884      	74.71031       	88.20329       	115.32922      	167.44313      	186.6764       	177.90698      	172.54117      	163.1386       	153.00046      	159.59113      	153.6304       	144.54507      	145.24777      	143.80702      	138.25482      	138.24179      	136.06842      	136.91135      	130.207        	125.529594     	126.5741       	128.64511      	122.99138      	124.23161      	120.179985     	115.59232      	122.145294     	140.20186      	133.1091       	120.03373      	
58.72422       	59.268745      	63.58891       	71.37272       	77.260956      	74.17644       	72.60014       	82.994675      	118.1337       	164.89825      	189.85408      	178.81274      	167.7622       	158.53185      	154.62215      	153.09244      	154.08768      	147.59738      	144.95264      	141.76894      	134.63226      	131.05426      	140.57355      	137.76595      	127.29109      	128.53104      	126.96696      	126.77178      	124.77839      	123.90589      	125.32195      	124.782555     	111.41204      	69.27207       	60.00215       	39.959755      	27.117868      	30.80673       	37.395084      	38.548874      	42.46309       	46.19999       	47.781998      	50.333878      	54.92897       	56.409336      	58.64807       	61.411278      	62.037884      	60.51556       	63.84576       	65.282234      	60.32692       	62.373936      	67.11952       	68.88971       	70.571144      	70.006744      	70.491425      	68.22475       	69.74819       	77.85484       	83.40758       	103.354866     	111.73563      	99.89289       	97.96326       	95.24309       	103.145584     	114.455284     	107.69457      	113.691216     	125.451416     	172.77191      	182.79642      	174.76942      	167.95166      	158.53497      	160.51308      	155.19044      	149.36098      	146.17125      	138.55179      	139.58113      	135.92035      	134.17743      	135.4131       	131.22626      	126.992355     	125.81299      	126.54312      	126.30655      	122.36996      	120.30488      	120.59569      	121.093956     	116.90516      	110.01712      	118.12514      	109.11515      	
59.651943      	61.973495      	66.42844       	77.35826       	77.42533       	71.356026      	77.97541       	92.73906       	111.42587      	154.95285      	191.65025      	180.73024      	171.62875      	162.48087      	160.27985      	158.77687      	152.99669      	144.8146       	144.11171      	141.56215      	141.05891      	139.96259      	138.44876      	136.70352      	133.27016      	127.00046      	131.79465      	129.40341      	125.99446      	124.25121      	129.06487      	124.998726     	120.4319       	74.739456      	47.27008       	38.072384      	29.083496      	24.363533      	30.491312      	40.520466      	42.86127       	41.09963       	45.412006      	61.8642        	55.76054       	62.472233      	53.25135       	56.104588      	65.307396      	63.701286      	60.87177       	63.769505      	59.987976      	65.62558       	69.9704        	71.86673       	71.20165       	73.52484       	78.82344       	85.0362        	87.51502       	87.37324       	92.187706      	101.23939      	116.15507      	111.895355     	107.6284       	105.07516      	123.699936     	124.31441      	124.04243      	132.31686      	150.79037      	177.71808      	162.80411      	156.32758      	151.46129      	143.33807      	138.19586      	137.91432      	133.50955      	129.35269      	129.33562      	130.453        	126.76566      	124.4314       	124.72127      	123.93841      	118.643295     	121.60209      	122.90222      	118.808105     	118.67763      	116.08264      	114.61657      	106.8976       	108.92086      	112.302864     	112.01198      	108.73922      	
60.56683       	61.361713      	62.63139       	72.16647       	71.99649       	68.913055      	70.127785      	86.161896      	97.57175       	128.74234      	180.02783      	172.34744      	165.92398      	167.03616      	155.01395      	152.58734      	149.91962      	148.384        	145.91502      	140.79347      	136.12436      	137.48715      	133.89798      	129.57147      	129.40509      	129.99208      	121.6502       	126.59218      	123.794205     	123.26017      	123.99061      	121.13204      	119.11598      	83.42524       	51.032288      	45.035446      	28.867088      	21.730038      	26.350838      	30.381016      	38.890144      	40.550392      	41.139603      	43.252163      	45.648438      	49.596577      	53.435585      	53.76099       	56.773575      	49.892334      	58.27153       	73.03785       	68.89751       	76.47465       	82.98631       	89.33501       	82.57581       	90.20568       	90.86553       	98.270065      	99.05299       	105.71724      	101.19987      	108.877945     	117.0525       	133.0989       	132.57445      	141.96832      	141.81084      	150.00919      	151.61545      	166.75641      	159.78952      	143.0115       	142.44232      	135.69485      	134.2139       	130.16917      	124.133896     	123.68277      	125.03993      	115.74449      	113.46507      	126.19145      	114.586105     	110.2952       	107.53749      	111.17111      	110.395584     	105.33353      	108.610016     	107.900635     	111.31946      	109.916466     	108.843666     	107.84562      	104.08366      	106.80765      	107.499466     	102.995605     	
62.638157      	62.338547      	61.67646       	63.28431       	66.74338       	69.78011       	62.722347      	71.840805      	88.029305      	129.38882      	154.29965      	186.78198      	169.45833      	157.62346      	155.45709      	153.08514      	145.63914      	140.83495      	144.693        	139.6848       	136.68184      	134.7503       	130.43329      	127.68864      	126.55293      	128.53459      	129.3437       	126.57069      	121.90606      	122.89808      	124.46038      	124.44215      	123.797844     	98.39003       	57.85555       	41.43664       	30.50508       	22.926609      	23.423702      	28.88939       	33.46439       	39.854656      	44.237614      	44.81993       	46.060566      	43.791477      	48.885532      	56.443806      	68.458         	65.34118       	75.77759       	84.72592       	87.73115       	77.12516       	92.80456       	92.64957       	100.7565       	94.17032       	100.279335     	107.38193      	116.38557      	124.70824      	127.57759      	133.25674      	133.10075      	151.89452      	172.02931      	147.33443      	129.97443      	128.8454       	126.66772      	128.68411      	124.631386     	125.49463      	124.569145     	130.14041      	115.32628      	124.31387      	117.079544     	112.74159      	113.14932      	112.78493      	115.71407      	108.558014     	108.11686      	118.38923      	108.829605     	102.066734     	106.49777      	107.829865     	109.672195     	104.399414     	107.940254     	104.42855      	103.1824       	102.25766      	101.48294      	106.63623      	101.75939      	99.07609       	
66.382935      	67.0157        	65.7992        	66.274796      	71.40832       	72.04798       	68.76584       	72.73973       	92.41422       	131.65013      	160.15544      	188.08519      	171.29527      	163.57057      	161.70383      	156.79214      	150.97797      	145.36835      	141.514        	143.15134      	141.36734      	134.17128      	131.61742      	130.98538      	128.11945      	129.09616      	122.18183      	126.09317      	124.12829      	125.975555     	121.91261      	121.00408      	124.10808      	105.123184     	60.85569       	44.781956      	35.547756      	24.917477      	22.712168      	34.16838       	35.719604      	35.73355       	42.616512      	44.086216      	53.31928       	47.740116      	50.051598      	67.71105       	83.08171       	82.73625       	86.19493       	97.12056       	84.58084       	104.27042      	106.30397      	106.09119      	114.800415     	120.73214      	125.317085     	133.32248      	140.46385      	146.94075      	157.06064      	157.19073      	150.51913      	138.12175      	129.83852      	123.97266      	124.359        	120.79419      	111.155045     	113.660904     	119.944016     	112.392166     	114.9133       	114.20926      	106.01474      	108.292984     	108.585365     	111.365616     	107.13036      	108.710205     	104.672455     	106.17681      	105.15069      	101.33301      	101.760445     	100.66793      	100.43376      	102.23694      	102.04808      	95.85674       	97.72023       	101.488365     	98.73569       	99.7982        	96.12785       	99.43437       	100.00375      	95.19784       	
59.815556      	59.560825      	61.06298       	63.90007       	61.94057       	63.003803      	63.885098      	65.33545       	79.20407       	112.92286      	160.69003      	187.89665      	176.73648      	164.35817      	157.57568      	153.19417      	151.76051      	151.21947      	144.85641      	138.0469       	140.79529      	134.51854      	133.45845      	131.01         	129.22768      	131.29094      	124.57878      	130.25705      	124.83385      	126.19279      	123.2445       	126.15166      	126.57068      	117.39647      	88.58911       	56.986366      	38.873264      	32.748093      	33.98675       	38.64199       	46.902664      	50.56931       	48.76559       	54.39486       	54.681477      	75.79501       	67.969185      	74.76556       	82.01908       	96.37279       	93.139565      	108.72424      	101.94367      	103.13297      	130.69179      	141.66698      	142.46483      	145.68945      	160.61595      	143.80682      	141.9461       	130.94566      	127.26554      	126.53683      	119.637115     	122.97827      	119.08869      	117.492195     	112.54997      	110.7172       	111.46253      	111.81115      	104.7148       	102.32448      	105.07362      	102.7972       	104.844124     	102.97466      	99.730156      	97.94256       	104.344185     	100.45615      	99.679596      	100.03227      	100.900795     	98.93839       	100.50801      	97.582275      	97.903206      	98.90594       	108.84236      	101.83155      	88.09516       	97.125275      	97.31438       	100.20965      	95.19649       	91.55943       	97.881996      	93.04654       	
58.233284      	61.02371       	62.378757      	64.337715      	70.78989       	74.080696      	69.89709       	67.667015      	71.65963       	102.05254      	149.28917      	191.47841      	176.0459       	168.44264      	162.46973      	168.73766      	166.18718      	157.89534      	150.90094      	139.4411       	137.15733      	137.76022      	140.69972      	141.69308      	134.27608      	127.35128      	128.88809      	122.81928      	125.27267      	122.107735     	116.65862      	120.11482      	121.58595      	118.92109      	84.266075      	60.460945      	61.068905      	59.913742      	59.171124      	57.5248        	58.837517      	45.607296      	51.927986      	63.97119       	60.314186      	78.39143       	74.70429       	92.63719       	95.18307       	108.706024     	126.86117      	124.3946       	138.07468      	148.08827      	154.50735      	132.56483      	120.52066      	124.78264      	119.072334     	112.04503      	115.09511      	116.45445      	109.01885      	110.63213      	112.172554     	115.317474     	94.13947       	102.601395     	108.0617       	103.78474      	97.34732       	99.541145      	104.66295      	108.55014      	117.00382      	116.478874     	111.93221      	110.4394       	98.30831       	103.831505     	100.5097       	97.655464      	97.50032       	103.249565     	92.59887       	93.97597       	101.14575      	95.12899       	95.50282       	97.07833       	98.297035      	95.47963       	90.54133       	99.17265       	97.77979       	94.697464      	96.58489       	93.63093       	97.94151       	92.08956       	
58.023262      	58.944702      	61.75684       	64.84394       	65.519646      	61.543533      	61.050518      	59.965286      	82.46871       	93.85075       	128.37196      	182.21642      	173.0359       	156.814        	153.02168      	157.6687       	149.82607      	141.42455      	142.1937       	143.16925      	133.68266      	128.15334      	131.03546      	136.9324       	132.36581      	125.751595     	126.122765     	123.2557       	119.125565     	119.91485      	123.46736      	122.71554      	117.1333       	123.15348      	124.14027      	107.48328      	96.45708       	67.3507        	66.02378       	69.2077        	64.90868       	73.578255      	58.998123      	80.82917       	101.73406      	101.01134      	104.79506      	109.71811      	117.18228      	135.77919      	136.69353      	125.56876      	122.27222      	117.08695      	109.31518      	112.1376       	113.797905     	102.86121      	104.86235      	109.64847      	101.58212      	103.10412      	103.35579      	95.82004       	104.8637       	97.38855       	101.13675      	97.93938       	96.80103       	100.72578      	98.789635      	98.84425       	92.78807       	99.99097       	103.994156     	93.775055      	88.215416      	106.111694     	107.614        	95.24739       	100.13294      	101.992546     	93.91143       	92.832565      	95.98109       	93.26805       	96.52684       	95.47762       	98.4456        	96.06853       	98.93148       	97.56776       	96.18322       	95.55496       	90.19347       	100.578575     	93.93116       	100.82665      	93.64478       	93.90252       	
61.74688       	60.818134      	62.238686      	70.42367       	67.238945      	63.52048       	68.99646       	63.654236      	67.19429       	87.320816      	116.6554       	169.6307       	184.05786      	167.03346      	161.66042      	149.64352      	141.39732      	142.20192      	147.48422      	148.18771      	134.1891       	131.39276      	135.5395       	128.09796      	129.69377      	127.51676      	123.251335     	128.02342      	125.9227       	122.48394      	123.7439       	123.00508      	119.63691      	116.25786      	121.28104      	118.30523      	110.92493      	80.50167       	86.75383       	93.1664        	100.19726      	102.448235     	109.52694      	114.27969      	123.135605     	128.23787      	137.64822      	124.54481      	114.6351       	116.33058      	114.73856      	113.28651      	113.29152      	116.61984      	107.34679      	104.274765     	104.60863      	105.70565      	109.21786      	101.775314     	102.17962      	98.11797       	100.63962      	98.2379        	95.68403       	96.23284       	95.957306      	94.16109       	91.84626       	89.958244      	92.967896      	100.830215     	88.31512       	93.75058       	96.41256       	94.95499       	93.21233       	90.0191        	94.834145      	90.423065      	88.10159       	96.24353       	88.1888        	88.30745       	95.92688       	95.44142       	92.00744       	87.29225       	94.62267       	102.2478       	89.281815      	98.11298       	97.67847       	106.61833      	87.96538       	93.17357       	92.71361       	89.64058       	94.23366       	93.3654        	
59.73104       	55.69064       	54.36792       	55.904438      	60.154995      	61.721977      	57.347008      	57.531265      	63.559166      	76.46204       	101.73626      	140.22153      	180.59866      	165.74513      	156.29611      	153.33575      	149.6913       	146.3658       	137.94632      	140.8026       	143.63145      	134.33594      	127.340034     	130.31216      	125.5461       	122.87851      	125.03399      	133.5787       	119.99599      	117.92467      	121.45946      	129.54619      	119.74238      	117.28552      	117.07504      	115.19058      	110.6736       	117.775764     	116.695206     	116.93415      	109.02372      	114.06453      	118.31717      	103.99885      	108.52689      	106.64795      	112.53088      	111.52234      	105.65583      	103.82129      	103.3225       	99.38243       	98.1279        	103.11876      	103.7963       	102.79894      	100.252205     	100.107376     	98.913765      	97.93409       	97.82516       	99.89467       	95.46082       	96.170166      	97.47507       	95.0074        	97.46769       	92.32255       	96.381454      	95.76884       	88.663765      	89.95548       	105.905464     	90.96285       	91.4915        	96.679794      	91.68382       	89.82499       	88.69286       	97.97714       	91.217735      	89.55745       	92.517914      	92.07054       	93.139824      	97.035904      	92.204834      	100.42442      	102.05114      	95.65747       	99.360435      	96.07651       	93.854195      	99.34041       	101.20031      	97.16321       	91.48449       	94.05075       	100.716225     	93.36873       	
60.27478       	58.125122      	56.50455       	58.06716       	62.746784      	62.06652       	62.85517       	59.341732      	67.007065      	84.99061       	101.051765     	139.15477      	172.36786      	174.23737      	163.19724      	161.99754      	152.31088      	150.31793      	143.5478       	144.6516       	147.4312       	138.2788       	137.49721      	143.51817      	132.31314      	134.36186      	124.45035      	132.96327      	128.0004       	125.80738      	120.878456     	124.05879      	121.58422      	121.50225      	127.21308      	128.77504      	116.357124     	118.086395     	115.44576      	108.33742      	106.812454     	110.87959      	115.91055      	107.85617      	106.53341      	103.56213      	108.83098      	109.02025      	101.237175     	105.40108      	102.95578      	94.56817       	98.67601       	98.30704       	102.27474      	98.12268       	95.51416       	94.78017       	88.382935      	89.80635       	91.45589       	92.620026      	90.70707       	91.09511       	93.89931       	88.74743       	93.88819       	95.46744       	96.38721       	103.37031      	90.073364      	90.41521       	95.19599       	92.041374      	97.22409       	94.74768       	94.448364      	94.63851       	98.603935      	101.68566      	90.63539       	88.87945       	95.74271       	91.9236        	88.21862       	93.86935       	93.49448       	97.472626      	93.0769        	93.330864      	92.95894       	91.91206       	93.00363       	95.2106        	87.376816      	90.26197       	96.39636       	96.785965      	87.21403       	93.69362       	
58.934013      	59.411602      	60.795498      	62.172493      	63.202026      	62.734917      	61.158184      	58.611813      	58.449993      	75.30578       	94.89071       	120.90357      	168.3404       	178.5655       	165.05966      	162.05128      	157.35985      	151.92963      	153.8118       	149.85355      	144.00198      	139.27866      	140.41762      	137.44884      	137.38191      	127.2666       	130.44179      	127.49698      	125.4238       	126.09948      	122.41288      	121.16936      	121.75398      	121.14821      	115.12099      	119.97218      	121.14595      	115.58699      	112.160645     	114.74988      	113.62105      	104.49353      	105.47486      	112.03476      	108.81451      	104.27771      	105.982        	107.965485     	102.77494      	101.58104      	105.51941      	106.257        	101.60356      	105.748566     	100.53641      	97.38377       	94.93448       	99.6884        	102.55484      	100.02372      	96.52813       	99.63813       	99.928764      	96.65518       	96.31188       	95.33414       	98.337875      	98.10068       	93.4378        	93.87968       	93.50202       	92.71235       	95.19756       	93.49768       	92.60026       	95.83496       	96.799484      	100.29354      	97.23535       	96.29749       	97.215256      	95.38306       	92.92207       	93.508514      	92.074295      	94.38432       	93.02796       	93.253334      	94.052925      	92.2953        	94.76883       	100.583015     	91.350815      	93.936966      	100.030396     	95.91483       	91.259155      	91.017715      	93.19707       	86.0193        	
55.76894       	56.57702       	58.934635      	61.432552      	59.086765      	58.049137      	64.627396      	70.390236      	73.66741       	64.49768       	78.67386       	108.51355      	150.15273      	188.00317      	177.14438      	167.33502      	158.45987      	156.81345      	149.76851      	147.52013      	143.45135      	143.124        	144.62276      	140.03154      	134.86151      	130.87628      	132.91388      	127.40118      	125.92293      	124.84703      	123.52779      	122.39124      	122.72414      	124.184654     	125.78931      	117.08509      	118.767426     	116.11744      	117.70584      	113.58327      	111.47187      	110.647835     	119.79298      	107.38378      	109.34205      	105.953926     	107.060104     	107.34624      	111.452934     	101.34801      	101.13699      	99.51712       	100.039474     	96.57452       	97.88583       	99.05359       	97.740616      	96.26014       	99.470055      	94.141815      	98.49767       	100.03292      	96.57795       	92.87263       	90.616646      	93.6392        	97.477615      	92.8251        	87.56654       	94.94817       	99.244095      	95.53121       	90.33678       	94.05505       	99.450195      	104.79872      	99.163704      	103.38818      	100.58463      	98.088776      	95.44406       	95.78386       	97.856705      	103.642784     	95.22492       	97.336876      	94.97282       	91.758         	93.41666       	90.256065      	88.12041       	84.4771        	86.16975       	83.64314       	86.890465      	87.10661       	92.79231       	94.23805       	93.99909       	92.76092       	
52.10606       	51.270493      	54.31265       	65.451385      	77.68998       	82.61734       	91.51872       	98.13842       	101.4817       	92.69595       	92.68779       	103.45086      	141.8445       	182.25212      	178.48503      	174.31386      	164.28358      	155.3753       	159.24571      	150.95262      	143.1902       	137.20511      	137.07335      	133.98021      	131.45207      	127.25339      	125.23877      	123.144424     	121.316055     	118.42915      	118.13457      	115.80409      	115.98549      	116.93675      	113.76286      	114.55092      	111.32022      	114.02074      	112.03548      	107.40718      	105.952995     	107.36891      	107.79211      	106.431564     	105.11103      	103.61193      	102.819496     	102.45075      	104.47299      	103.14254      	99.19576       	100.91271      	104.95342      	101.417595     	96.58928       	97.2644        	100.236015     	97.4314        	95.30758       	94.3396        	95.458855      	94.494125      	96.87463       	97.68477       	97.15801       	94.48332       	97.0869        	95.838295      	94.62692       	92.19974       	95.84322       	97.686554      	91.54078       	91.17334       	93.749565      	94.29858       	96.19505       	95.37711       	94.038376      	93.71485       	93.18575       	98.5571        	99.03677       	97.19832       	102.97391      	106.48154      	100.63823      	97.880356      	99.5432        	108.96663      	108.048004     	102.862885     	101.26827      	96.11755       	94.12049       	98.6115        	99.29198       	92.78361       	96.02446       	99.481804      	
66.38632       	68.556465      	69.11254       	73.72605       	85.67732       	91.50422       	96.96935       	107.88588      	109.59996      	98.9047        	105.369415     	125.890976     	138.28539      	175.36261      	172.21036      	166.16539      	158.64722      	150.46811      	144.4013       	142.85867      	133.90604      	133.3995       	132.40648      	129.81413      	128.33838      	129.55785      	126.89918      	129.17764      	125.06682      	130.90349      	125.98909      	119.44475      	114.167534     	120.185165     	117.313675     	116.43067      	113.342606     	112.6649       	112.914375     	107.67787      	101.96667      	106.05238      	104.90214      	104.73319      	107.410194     	103.8781       	100.45512      	101.55977      	102.65813      	96.83998       	96.556244      	97.15199       	95.33826       	97.57356       	97.72152       	95.4128        	103.3542       	107.51369      	98.57396       	94.63942       	97.45987       	94.68682       	94.5686        	93.96233       	90.946785      	91.886894      	92.17501       	90.7987        	92.01883       	91.52284       	87.066086      	93.71618       	92.1488        	96.354904      	101.45898      	92.4108        	100.08743      	100.529854     	97.77873       	97.20612       	97.08557       	94.53758       	94.390274      	95.95976       	99.23821       	95.05672       	93.330826      	90.87962       	92.81404       	94.20351       	96.146286      	91.775955      	96.97815       	93.9403        	88.46216       	99.23036       	101.37694      	95.52206       	94.17895       	96.4735        	
74.877495      	75.27121       	73.75448       	72.09292       	71.9701        	93.11596       	96.83836       	94.144905      	108.37145      	116.5277       	127.807076     	123.448616     	144.16893      	167.27562      	154.47911      	147.64836      	140.81297      	141.15677      	133.48459      	134.28831      	135.9278       	127.754875     	124.98095      	126.4687       	128.53793      	118.762764     	119.329544     	119.43012      	117.35356      	114.78116      	114.0109       	118.739136     	114.1755       	114.56392      	116.77184      	109.65225      	112.33684      	107.34928      	107.123055     	105.96551      	103.27637      	100.630684     	102.84335      	101.747734     	100.596436     	106.38311      	100.886505     	95.38131       	102.298546     	104.14169      	96.76222       	98.70126       	97.64594       	97.443794      	93.79887       	99.75862       	100.22359      	92.43192       	94.72792       	100.353096     	97.78741       	93.48076       	94.054695      	95.819595      	95.91271       	93.72607       	93.98938       	92.97016       	93.05232       	95.13209       	95.47485       	93.1848        	95.24704       	95.05427       	97.08435       	95.70384       	98.48431       	98.499626      	93.75342       	93.98544       	93.881386      	91.71247       	95.278534      	95.611534      	92.76559       	96.932526      	95.2288        	91.807755      	90.18001       	94.45058       	95.509186      	93.87843       	95.121284      	96.951004      	95.913826      	93.631645      	92.35991       	93.875         	92.86995       	92.00853       	
79.890366      	79.432976      	78.35319       	82.18042       	93.0515        	100.6586       	100.162315     	101.87547      	115.48869      	137.61351      	149.66885      	160.63411      	153.69122      	138.33234      	132.47089      	125.9893       	122.15531      	122.11907      	119.78211      	118.88521      	115.809975     	117.87985      	117.54633      	113.04928      	107.74252      	110.09379      	109.25429      	112.926926     	107.225815     	104.858        	108.87654      	106.16999      	105.56203      	107.54798      	108.57174      	105.52497      	103.72137      	105.2003       	102.2382       	105.776215     	106.2253       	95.43979       	95.77445       	98.92148       	98.39523       	96.89971       	103.31001      	98.65308       	97.03493       	95.11347       	92.04439       	93.72761       	93.04826       	96.11961       	96.53027       	101.21849      	99.65937       	99.861694      	95.52299       	96.25044       	93.24401       	93.971725      	94.447334      	93.01069       	93.84744       	90.01412       	93.14018       	94.917984      	91.619064      	90.22823       	86.24293       	86.26285       	91.303635      	88.39994       	86.24609       	91.53343       	100.467964     	90.57465       	91.512436      	98.5193        	92.94267       	95.44531       	92.43905       	94.721275      	95.83623       	91.332726      	94.151535      	92.50546       	91.411255      	93.19765       	93.18403       	95.60283       	92.16875       	95.262344      	94.74047       	89.47514       	95.252075      	93.34847       	94.44079       	91.94754       	
84.99411       	87.36435       	89.014656      	96.40565       	111.67782      	116.1537       	124.934586     	141.89113      	130.7617       	119.4991       	117.92968      	121.14241      	111.57161      	107.17829      	110.27436      	109.75678      	106.457954     	103.821236     	104.42394      	102.83881      	98.77958       	105.08773      	100.184135     	94.00427       	94.41085       	96.67465       	93.84946       	96.50644       	99.69565       	92.34162       	91.45338       	93.359856      	95.72985       	92.703         	95.80238       	94.63211       	99.35156       	98.925575      	90.39861       	89.02229       	99.17543       	91.28564       	89.36976       	91.63283       	93.70534       	91.522675      	94.134026      	94.740204      	92.56365       	96.77889       	100.24138      	103.42487      	104.48661      	92.8656        	96.10739       	101.80103      	92.98158       	96.06041       	103.03466      	93.80725       	92.78219       	96.74878       	95.3156        	96.86231       	94.51515       	91.365845      	95.66843       	95.69401       	88.83769       	95.48005       	93.58175       	91.11715       	91.46536       	91.26376       	97.14535       	96.95532       	96.378654      	100.86723      	100.48323      	97.628716      	101.48714      	97.7273        	95.731255      	98.877754      	96.04046       	96.67833       	94.75416       	94.83276       	99.94978       	106.28653      	97.04711       	100.0598       	94.83721       	92.88037       	92.82425       	106.43148      	104.53741      	102.834854     	99.33483       	102.14868      	
97.80445       	99.38847       	106.21323      	116.41508      	128.68877      	118.49322      	112.68318      	107.97051      	109.56477      	108.79045      	100.89282      	100.872314     	105.79142      	100.60294      	97.14011       	98.57663       	93.94165       	95.02214       	96.513336      	98.98274       	98.09461       	93.41888       	89.4086        	89.90744       	93.987144      	87.55765       	91.4733        	90.6669        	87.95924       	88.762825      	91.54353       	90.15925       	87.024284      	89.00172       	89.9669        	88.76987       	91.230385      	92.82726       	90.06463       	88.96054       	87.864426      	86.56418       	89.12088       	86.967766      	88.44092       	88.87251       	90.99105       	87.63789       	86.27503       	89.69599       	90.21956       	90.045654      	89.111275      	88.62159       	96.38302       	89.69843       	90.5332        	89.838425      	90.047104      	82.85864       	88.97502       	88.946075      	86.71512       	87.32626       	89.96619       	88.16125       	85.328094      	88.904625      	88.96806       	88.26641       	85.03451       	88.75105       	91.627754      	93.9329        	108.12882      	101.40348      	99.28566       	96.964714      	96.79937       	94.33017       	87.22304       	87.21884       	90.40316       	91.362305      	88.89418       	84.62409       	90.69356       	89.32979       	88.22453       	90.319145      	87.58955       	93.00152       	89.69864       	87.32978       	95.04472       	87.345406      	88.829704      	90.40089       	90.6001        	96.12458       	
91.144585      	89.906784      	90.85668       	88.60498       	85.28478       	87.263275      	90.836655      	87.83881       	85.250114      	85.8599        	96.58316       	98.93275       	95.79301       	102.27867      	99.50888       	97.50249       	93.79967       	94.941864      	96.19706       	89.05195       	93.92843       	88.60302       	95.36719       	93.961075      	88.41195       	96.58879       	88.73062       	93.372025      	90.12413       	95.9642        	93.28825       	92.34162       	101.70414      	92.92242       	89.55022       	90.17212       	89.8075        	99.5064        	92.929146      	88.97362       	96.02006       	98.45508       	87.93511       	91.03242       	92.07223       	91.70391       	93.38532       	94.45848       	96.90923       	89.05506       	90.56515       	91.84237       	95.47327       	95.01308       	89.62289       	95.25746       	92.95472       	102.00377      	98.055214      	95.71507       	91.26793       	85.58831       	90.8892        	87.35836       	85.368004      	86.97334       	87.17794       	86.84582       	86.7946        	84.019646      	87.060165      	92.72831       	110.53065      	106.97779      	98.2873        	90.38217       	88.15358       	91.708496      	97.32137       	92.24002       	91.50174       	91.158745      	89.87901       	89.759735      	91.70633       	92.51295       	85.96152       	92.202515      	89.86203       	86.41076       	87.71867       	86.07465       	90.937546      	86.576645      	86.46965       	90.11968       	87.93648       	83.81147       	86.98164       	93.38496       	
95.98612       	92.621864      	91.1565        	88.94383       	96.81213       	102.28707      	95.17137       	97.92163       	94.76909       	96.388985      	100.74003      	93.35833       	98.16003       	100.780014     	98.182304      	93.57797       	97.8144        	94.433         	92.94341       	88.03076       	94.27559       	89.48153       	88.67738       	87.69097       	91.82887       	91.03842       	84.922325      	88.01684       	88.15641       	87.174545      	91.94707       	93.80344       	98.86014       	108.64884      	95.91432       	98.49625       	91.688515      	99.01424       	99.583755      	95.14216       	85.60535       	83.50959       	89.894         	88.07818       	84.47502       	90.078926      	93.11787       	76.7424        	83.85095       	107.98397      	122.23778      	106.04077      	104.47095      	98.484116      	89.98031       	87.219696      	88.68906       	90.96778       	90.895065      	91.73026       	89.907425      	87.55608       	83.71513       	85.98156       	86.33583       	85.970245      	85.64485       	86.289536      	87.630165      	87.53199       	85.24916       	84.78868       	84.7109        	81.89795       	82.83222       	85.10851       	87.36173       	85.10176       	83.87179       	88.40705       	86.39741       	84.845665      	87.26543       	86.68083       	91.00485       	93.36905       	88.6182        	90.06425       	85.55091       	93.151245      	91.09881       	88.22295       	83.8684        	87.83312       	85.849365      	92.03154       	96.32124       	95.91027       	100.6532       	97.71281       	
92.269135      	93.27516       	98.667366      	99.05041       	99.930824      	92.10247       	99.48516       	105.38531      	104.2809       	93.89104       	100.76317      	101.13346      	99.21998       	99.905014      	101.30153      	103.33986      	101.870125     	95.27579       	101.714005     	100.81196      	94.0889        	98.424034      	98.33007       	92.73194       	89.89739       	90.99828       	95.89005       	91.96334       	97.48881       	96.8602        	96.190796      	94.14864       	92.79068       	91.93605       	89.638504      	92.781456      	89.926834      	92.47916       	96.08789       	91.38478       	95.00682       	91.87679       	87.448         	86.61743       	88.35254       	86.77608       	91.54365       	96.81611       	80.24417       	84.92148       	104.93091      	99.52453       	97.06751       	97.046234      	94.453156      	93.16088       	90.47281       	95.00835       	89.1468        	90.51549       	97.8304        	90.485634      	90.109955      	92.36345       	89.49052       	90.65013       	91.569855      	91.572624      	90.88439       	93.12793       	91.51291       	91.14521       	89.74974       	92.69063       	91.61242       	92.18741       	87.22555       	98.443695      	102.925705     	93.515755      	94.53232       	98.610596      	92.52237       	90.20765       	99.19892       	98.61467       	89.35037       	93.16745       	102.50906      	93.93857       	89.22133       	90.76545       	92.69036       	90.40316       	90.81681       	94.95606       	98.41757       	84.212326      	81.81205       	88.108086      	
90.620926      	92.14905       	97.065025      	102.20711      	104.48388      	102.07396      	98.393196      	97.47526       	98.562256      	103.619644     	103.91356      	104.20076      	96.6497        	98.88457       	102.19039      	101.818275     	105.45827      	96.645226      	104.51403      	98.653244      	98.869965      	102.21266      	99.167046      	95.99307       	97.29467       	96.62181       	92.61377       	95.11963       	98.482086      	92.83948       	94.62228       	93.88802       	89.93177       	91.68347       	91.01079       	92.36677       	93.956505      	90.32165       	92.22001       	89.34113       	88.1283        	91.41464       	93.788155      	88.03341       	89.586784      	90.62174       	94.50225       	87.78167       	89.076935      	94.93344       	89.67985       	86.53858       	90.32822       	94.38664       	90.53226       	86.83271       	94.52559       	96.65456       	92.00651       	91.76264       	97.20683       	94.74309       	88.57365       	92.31945       	98.30824       	90.62017       	92.014275      	95.80799       	93.61138       	94.26142       	92.291046      	93.696304      	97.20151       	88.854004      	90.21701       	95.83709       	93.329956      	89.73994       	94.37499       	98.1765        	95.02603       	94.92177       	97.38834       	95.031265      	92.20748       	94.4606        	96.37962       	95.248085      	90.125786      	99.96827       	98.31906       	95.18902       	93.75257       	99.84502       	93.28027       	85.77608       	91.87743       	92.96691       	94.34102       	89.0904        	
95.648384      	93.54357       	93.79981       	95.634186      	96.99212       	97.92742       	100.95195      	94.21373       	90.3911        	97.439255      	99.02929       	95.056915      	92.53434       	92.7315        	94.31296       	93.09024       	96.95813       	96.32166       	92.26107       	96.60217       	90.56548       	89.70612       	89.423615      	92.84573       	90.97347       	93.23425       	88.91652       	91.62989       	91.450554      	95.24151       	90.80803       	91.24611       	87.03863       	86.8109        	92.54846       	91.79784       	84.58167       	90.607666      	86.91347       	90.02776       	91.65215       	93.42472       	87.44982       	86.6398        	86.798325      	85.59107       	94.056076      	93.285355      	91.04361       	95.52479       	92.557335      	94.01929       	91.38368       	89.798546      	90.713745      	90.72431       	92.66424       	91.22193       	88.40032       	90.79684       	90.03727       	91.50307       	91.59818       	86.46925       	86.62584       	91.841644      	89.67248       	86.37549       	92.10497       	90.95305       	89.80629       	88.96589       	97.63221       	96.80725       	91.966995      	92.111244      	94.35092       	96.23687       	98.02735       	96.05679       	94.429085      	101.446815     	92.90007       	94.85988       	94.39863       	88.605606      	88.771355      	93.60877       	91.91586       	91.47169       	89.423355      	90.76352       	89.72602       	89.44905       	89.8446        	94.71725       	90.68846       	91.83918       	96.995674      	94.64302       	
93.50652       	94.24458       	95.64868       	96.98367       	102.446175     	97.41115       	99.16676       	95.81703       	96.28084       	94.64299       	91.516426      	90.181465      	92.07097       	93.56048       	93.39455       	94.57677       	93.17716       	95.06176       	92.868805      	91.55392       	93.68349       	92.26671       	90.11011       	90.2518        	92.518684      	92.28634       	94.548965      	93.65458       	91.68466       	91.20769       	97.36429       	95.53097       	89.78374       	88.3221        	90.614876      	91.48107       	89.8885        	94.12038       	94.02508       	94.51735       	91.54017       	91.13183       	88.510544      	87.62344       	87.5896        	89.794914      	92.493454      	87.7189        	89.90792       	89.57244       	88.75563       	86.69425       	87.12716       	89.13048       	89.65929       	95.37004       	99.48001       	98.99562       	98.99108       	97.59367       	93.82404       	97.15368       	97.217766      	94.91837       	92.11449       	96.989426      	94.24389       	93.37823       	93.38992       	92.94007       	89.67668       	88.24328       	92.53716       	92.22295       	91.15552       	93.55579       	90.82397       	96.68863       	100.09752      	92.094475      	93.92154       	97.545784      	95.75975       	99.47277       	96.317375      	96.792725      	98.465805      	97.04902       	91.30659       	98.12054       	97.606255      	95.36686       	94.89535       	93.46357       	93.12062       	90.40821       	92.39006       	103.77274      	86.23376       	89.98762       	
96.399994      	96.20909       	94.32137       	93.17087       	91.1986        	91.465614      	97.109604      	91.2295        	88.707726      	92.194084      	95.801796      	89.63777       	90.26468       	96.582726      	94.776855      	90.531166      	95.54988       	95.231064      	92.22598       	91.7531        	96.568924      	95.360146      	92.57727       	94.82175       	93.16365       	95.27087       	97.22708       	100.18812      	100.092354     	97.590034      	96.64232       	96.26016       	98.834785      	93.33764       	96.504135      	98.07189       	93.160385      	94.51259       	94.17327       	95.39991       	95.68155       	89.97259       	95.92319       	99.89578       	87.468025      	89.67555       	91.081055      	93.01891       	89.54549       	90.22836       	94.47289       	92.380455      	91.35115       	92.41267       	91.848335      	92.54479       	90.06019       	96.795334      	95.234116      	88.84339       	93.50358       	90.037926      	88.36693       	89.24589       	92.255615      	87.78687       	93.20549       	96.368484      	94.55058       	95.64796       	89.55838       	90.53643       	93.64559       	94.52469       	85.741295      	90.71304       	96.98873       	89.434456      	102.173065     	95.61214       	96.35151       	88.31508       	93.337326      	93.176445      	87.851715      	83.00008       	92.73312       	90.78944       	89.71364       	97.11254       	94.893715      	90.60711       	102.5937       	110.98455      	104.716255     	97.22091       	94.057236      	95.82437       	95.573235      	95.74855       	
94.860466      	94.03394       	94.406906      	94.67302       	94.36705       	97.552246      	94.019325      	91.67754       	94.808365      	98.90918       	91.67487       	91.001785      	97.7498        	96.082466      	96.88968       	97.47437       	96.44516       	95.08345       	92.4559        	97.2723        	99.929794      	95.031494      	95.44766       	97.5736        	97.86552       	93.72095       	93.27197       	92.66155       	94.33318       	89.55106       	96.302086      	97.09913       	93.13454       	92.77345       	92.13246       	94.57781       	95.07557       	98.394356      	97.789154      	96.45235       	94.74727       	93.06429       	96.37755       	92.31949       	90.65343       	90.25673       	93.159256      	94.95253       	90.21663       	90.64179       	94.35186       	90.89088       	89.960045      	89.381744      	87.17186       	87.56932       	93.84421       	96.52697       	90.37569       	92.30387       	103.955        	92.6299        	92.031364      	95.88237       	95.99161       	89.717804      	90.28598       	94.348175      	93.0193        	92.03033       	93.87575       	97.112175      	92.86591       	91.8378        	90.666695      	76.6787        	76.89094       	84.96985       	107.84914      	119.82553      	106.52539      	102.32287      	100.213264     	95.928604      	91.268684      	93.623535      	104.69173      	99.71147       	97.24611       	100.80429      	101.31117      	97.90462       	99.881966      	98.67143       	95.93853       	95.112564      	94.34227       	95.72375       	95.97017       	94.303764      	
92.13423       	92.28207       	93.53523       	93.28353       	93.466064      	91.06007       	89.83334       	90.08082       	93.156204      	94.00829       	91.39348       	88.35641       	94.58601       	93.75703       	96.639114      	108.82921      	115.67159      	122.81332      	112.35007      	109.39242      	104.202866     	101.96518      	101.15317      	102.25288      	97.63241       	97.17347       	97.23908       	98.018845      	98.70385       	92.98144       	92.25269       	94.43194       	92.444626      	96.39601       	100.47937      	103.55885      	86.6298        	89.64356       	92.392456      	94.38782       	93.35271       	89.44484       	93.422554      	91.13023       	92.757935      	90.79333       	92.175896      	90.04753       	94.367714      	95.552055      	90.22103       	90.32864       	91.712776      	89.44683       	92.33149       	89.547005      	92.04968       	94.372314      	91.124825      	95.60725       	96.33355       	92.34155       	87.17611       	92.74946       	94.57467       	91.604385      	92.905594      	92.222916      	76.08704       	70.64811       	67.09192       	48.0911        	34.64113       	19.466707      	11.543986      	13.002772      	22.610716      	29.889431      	50.471516      	103.59578      	127.22696      	129.238        	124.15992      	121.330894     	118.84435      	115.04324      	109.74654      	109.36838      	112.6668       	111.68208      	114.14275      	105.533        	110.68222      	109.210785     	104.65272      	101.43741      	115.044395     	111.11873      	99.74772       	106.08407      	
86.097916      	87.85624       	91.33642       	95.91607       	100.94565      	103.79295      	104.11146      	104.41414      	100.62239      	97.51336       	101.9712       	101.12435      	98.14592       	92.97377       	95.03757       	96.71387       	95.06682       	103.20889      	95.57861       	95.84123       	94.49999       	103.96842      	97.69644       	105.76319      	91.05107       	95.53505       	95.36718       	96.64418       	96.75539       	95.39609       	100.927055     	97.47726       	96.19245       	95.263596      	103.28647      	87.50536       	91.83511       	94.890274      	99.29113       	95.42993       	97.858894      	95.04024       	90.95927       	87.678505      	86.963264      	88.42293       	89.22719       	90.462814      	93.46362       	95.90882       	88.91032       	89.889114      	89.67994       	90.93836       	95.95365       	92.27849       	96.287964      	90.21825       	91.78529       	92.91501       	100.576904     	96.312065      	94.47739       	97.37298       	92.72382       	89.83643       	64.96202       	36.246204      	20.700565      	17.058716      	13.787384      	10.671919      	11.611337      	12.098191      	11.931548      	16.631243      	22.420544      	22.635698      	35.1511        	94.71924       	149.4999       	137.38626      	138.7534       	136.97176      	126.89669      	124.44256      	125.89912      	123.44545      	121.9952       	116.15175      	113.30921      	113.76677      	120.18021      	111.30891      	112.30516      	103.52657      	105.32689      	107.99329      	109.012276     	106.16347      	
89.405075      	89.40913       	92.37023       	94.62898       	94.36232       	89.91316       	87.91203       	90.188385      	89.84839       	83.89488       	87.26485       	89.52618       	91.53145       	98.07869       	100.24976      	99.66413       	96.09575       	99.3351        	99.56889       	97.112175      	100.11726      	95.64555       	98.81666       	100.286026     	94.591515      	98.6923        	107.38842      	93.49379       	91.353485      	94.53688       	95.01012       	89.896126      	91.467964      	91.42622       	94.01493       	86.35205       	96.67897       	91.59547       	81.895676      	85.49849       	89.73242       	87.220985      	91.61617       	86.270195      	85.84636       	93.20633       	83.69966       	91.0486        	85.524796      	90.05676       	87.96789       	91.99511       	90.74136       	91.76681       	85.44911       	88.21191       	89.136055      	86.90605       	92.7044        	84.302574      	76.31727       	56.27927       	52.556602      	50.157005      	32.257378      	15.806443      	12.288885      	8.944045       	4.4543867      	14.548789      	19.978415      	30.565199      	23.37151       	26.70656       	29.040264      	35.157272      	33.93633       	31.72252       	62.644367      	79.17927       	140.08974      	170.99779      	149.56302      	138.96771      	137.45787      	137.7853       	134.01794      	124.49309      	123.093636     	126.10009      	122.23918      	115.202866     	117.33375      	124.010284     	109.61076      	106.48047      	109.36323      	114.42204      	106.19118      	109.243546     	
91.37074       	90.48307       	93.8558        	99.61801       	97.28582       	93.53765       	93.1728        	94.255875      	96.16284       	105.08805      	101.69099      	105.412926     	105.25319      	99.284805      	99.21244       	104.747696     	103.74206      	104.986176     	103.223076     	102.97335      	102.25526      	97.89454       	100.561806     	99.84284       	99.66179       	96.767494      	99.55972       	103.7164       	95.400764      	94.13329       	98.3036        	95.077705      	94.56359       	98.30423       	97.88798       	104.03343      	102.16944      	95.00225       	93.94445       	95.91419       	93.00365       	96.948944      	96.65358       	90.47367       	96.13161       	99.84917       	86.034454      	85.00416       	92.156525      	94.29994       	88.467445      	90.69539       	94.17155       	95.790985      	94.43309       	93.12154       	75.88767       	51.69521       	33.647243      	31.008308      	24.701786      	14.740963      	14.8143015     	13.355053      	7.90483        	13.472437      	29.023684      	30.84883       	27.867533      	30.07158       	33.112415      	33.600075      	34.508274      	39.762775      	43.587833      	39.49959       	40.248802      	42.347206      	51.375454      	76.28902       	131.18106      	177.85692      	167.805        	156.79494      	151.66501      	145.7077       	140.0604       	134.84348      	134.3572       	133.15558      	149.29216      	146.94565      	139.99411      	130.0005       	121.97629      	121.21461      	122.30087      	116.75863      	111.70428      	114.42384      	
97.5674        	95.671425      	95.82954       	103.71329      	102.46231      	98.59107       	100.02001      	94.881874      	94.241936      	98.553055      	93.923996      	91.870834      	92.450195      	92.97098       	94.69066       	99.24848       	101.60025      	100.12432      	96.72497       	93.70971       	98.32557       	97.1822        	96.21715       	97.009125      	99.41391       	99.3171        	95.76762       	95.1621        	97.85015       	97.72355       	94.16467       	96.906136      	101.10751      	95.703445      	96.60609       	96.82869       	92.138756      	93.175255      	99.190414      	93.77968       	93.879036      	97.016716      	98.70675       	93.84195       	87.60205       	95.01957       	94.36716       	88.04826       	90.47198       	95.0037        	95.460335      	92.61763       	86.36787       	66.52209       	36.88685       	25.132713      	24.56187       	21.707766      	6.007554       	6.936509       	16.616493      	18.908834      	18.391432      	24.705381      	32.66929       	32.414116      	30.92682       	37.395275      	43.110996      	42.66107       	46.81774       	61.058865      	61.190792      	58.19962       	58.61599       	65.193535      	60.818844      	59.919834      	68.45084       	92.793015      	117.34532      	152.32994      	176.85443      	161.00482      	155.15646      	151.15634      	145.47565      	140.19467      	137.52174      	132.369        	130.49928      	126.21411      	127.07999      	128.52335      	124.73601      	121.13883      	122.49779      	120.67856      	119.408066     	127.450836     	
96.9862        	94.738716      	94.49757       	97.99928       	99.28474       	99.60955       	93.32695       	95.54891       	99.269745      	96.16861       	94.19795       	92.980095      	94.8429        	95.015976      	93.93133       	98.185425      	99.16051       	96.35212       	93.90762       	97.9759        	96.59604       	90.91967       	93.946815      	100.25728      	98.58744       	95.57718       	95.97087       	103.11776      	99.78527       	94.14925       	90.74129       	96.3333        	93.707146      	93.008125      	92.40454       	96.7214        	92.311165      	92.023994      	97.2601        	95.99545       	98.21882       	100.482475     	101.59342      	98.89994       	98.34836       	94.83472       	91.597115      	88.6299        	61.760616      	52.8476        	48.210735      	36.226578      	25.494272      	16.786526      	11.435328      	16.308502      	17.279865      	21.795776      	25.871967      	27.414722      	30.610409      	27.345156      	37.859062      	40.00525       	35.40552       	34.941605      	49.977837      	48.239788      	46.28251       	50.27615       	54.40601       	57.55479       	56.479946      	60.142597      	60.908062      	55.265568      	60.956017      	60.092136      	72.177666      	72.04336       	118.4566       	147.55582      	171.47987      	151.52892      	148.79869      	155.76459      	144.97585      	138.13008      	142.90839      	144.05475      	133.53352      	131.67055      	132.81625      	132.41495      	127.221695     	137.19427      	129.97919      	119.40274      	118.3662       	118.732475     	
94.67871       	91.231964      	91.52032       	93.22893       	97.673996      	93.53606       	92.98701       	92.50529       	91.76291       	90.687935      	90.777435      	92.33765       	91.41751       	89.20749       	86.24962       	90.763275      	91.92452       	89.76342       	91.89946       	93.393105      	94.80712       	94.08281       	95.833244      	95.55526       	95.05116       	95.78649       	94.231766      	95.78084       	96.51871       	104.435905     	102.79442      	109.257706     	107.3807       	96.55781       	95.0304        	97.30717       	101.151085     	99.71097       	94.17729       	95.601265      	98.41104       	95.89395       	97.30144       	98.2137        	76.573395      	59.78607       	42.39807       	24.95298       	8.172696       	10.839962      	10.821423      	15.555886      	16.285261      	17.079882      	20.82747       	23.435486      	27.733974      	27.569254      	32.193306      	39.992184      	47.476948      	48.383953      	52.402695      	54.67316       	57.002625      	54.363         	58.109028      	65.3905        	59.165554      	64.72499       	61.407112      	65.42325       	66.67538       	85.60876       	77.701546      	72.27765       	69.072685      	57.083782      	63.084576      	79.60259       	115.000496     	156.68996      	184.19426      	169.13438      	161.57782      	157.98878      	155.01668      	154.63295      	145.32089      	139.11565      	140.43015      	142.86331      	137.4654       	133.10948      	135.19896      	132.79388      	126.973145     	129.69548      	127.55441      	123.57326      	
99.11853       	100.24342      	102.11032      	102.82044      	101.12574      	100.61943      	100.90817      	100.09403      	101.61452      	98.55972       	101.37322      	103.23561      	101.997635     	99.110306      	105.58571      	104.82844      	106.54373      	99.951614      	102.01871      	103.8326       	106.40117      	105.94547      	105.80775      	103.56717      	96.502075      	97.566124      	103.859634     	100.27792      	105.525215     	107.95687      	107.31403      	104.081215     	105.272446     	116.30681      	124.84236      	111.29467      	106.93321      	106.93411      	100.22289      	98.25143       	101.14235      	100.86772      	92.6108        	46.445927      	18.214977      	4.5313077      	3.3740602      	7.63885        	9.829235       	17.49056       	14.021171      	21.197039      	23.46655       	28.503935      	28.62656       	30.67874       	36.23424       	41.67602       	42.92637       	50.58671       	44.864075      	49.96784       	52.59882       	55.889385      	54.572353      	55.807228      	60.70135       	61.978558      	61.30259       	63.64807       	65.48213       	65.06423       	64.00221       	69.653496      	67.18255       	59.71628       	61.264946      	75.34066       	67.67187       	90.00133       	100.5074       	154.54242      	182.01434      	170.5657       	167.87718      	160.37396      	155.72453      	153.08966      	151.21347      	149.73334      	146.6354       	140.02579      	143.00223      	139.89789      	134.2388       	132.07477      	129.859        	134.87558      	128.11214      	133.25542      	
96.71443       	95.38054       	96.32263       	98.64766       	101.15568      	99.40454       	97.77799       	96.2409        	101.415726     	95.078         	95.73551       	96.120224      	96.05762       	98.35709       	105.70041      	113.828545     	108.55992      	106.21202      	107.061676     	110.04898      	109.09631      	104.14101      	116.9126       	128.59152      	115.51942      	106.72014      	103.058334     	102.80657      	95.41943       	94.78409       	98.38973       	95.76374       	93.77433       	93.476776      	94.86156       	90.77283       	92.28539       	97.46304       	97.75285       	89.83472       	90.653244      	89.532135      	53.96857       	14.488333      	-1.3944085     	-8.03019       	-3.789177      	8.608069       	18.146706      	19.988003      	23.892618      	24.037079      	32.54853       	35.8239        	32.89424       	40.12632       	46.24196       	44.656124      	43.827335      	52.99682       	54.46771       	53.76463       	56.75737       	56.977512      	63.82426       	62.453068      	64.856735      	70.10717       	72.92749       	69.76668       	68.74093       	70.27267       	68.853004      	73.07099       	76.67557       	68.43359       	65.95377       	69.53216       	66.19566       	67.584625      	98.80785       	148.73456      	181.03099      	170.82562      	165.72437      	155.95444      	157.54225      	147.40811      	146.13145      	145.50826      	133.75543      	136.32314      	133.41664      	129.28957      	131.86746      	133.99939      	130.0429       	132.03973      	125.408936     	120.86299      	
96.63471       	97.71329       	101.50993      	101.860825     	101.32858      	101.63094      	102.988846     	99.55403       	96.91964       	107.51116      	109.490425     	107.87328      	106.40823      	105.24297      	108.41265      	112.34806      	112.012924     	104.8652       	102.58932      	101.34395      	106.23721      	97.048134      	95.69273       	111.69093      	121.543655     	109.45258      	102.76718      	101.07112      	98.0503        	95.79222       	92.17552       	97.179855      	94.4737        	90.95076       	89.82012       	94.17774       	97.2675        	95.08801       	96.44921       	98.9809        	94.694046      	85.31974       	43.676212      	23.880247      	5.916514       	-2.1163976     	-0.281531      	4.0852866      	13.230661      	20.701199      	26.687641      	43.617867      	42.96456       	43.240097      	42.974712      	41.02217       	42.49878       	45.84832       	50.07789       	45.746357      	49.461327      	54.061363      	57.30392       	59.476967      	60.6137        	63.497578      	59.003586      	64.78002       	71.90056       	70.17758       	69.92357       	79.5406        	69.90002       	67.94144       	68.75911       	70.94268       	68.059845      	63.376343      	65.052536      	76.424225      	93.33831       	123.70402      	182.56064      	181.18625      	165.43547      	160.25494      	160.04587      	158.06291      	151.12148      	150.5358       	147.21336      	154.9175       	141.87704      	137.1775       	132.76556      	131.92758      	126.35595      	129.14859      	133.74545      	131.0067       	
97.64842       	99.103264      	101.0151       	98.45277       	97.43958       	100.782104     	103.31749      	97.66753       	94.85074       	103.58351      	101.02388      	93.73502       	97.92571       	102.35353      	101.47445      	97.001434      	99.25312       	104.21281      	103.56859      	108.46081      	111.1329       	111.38951      	107.57022      	109.36312      	114.092926     	106.97724      	99.56032       	99.70006       	105.480156     	100.63506      	93.65881       	98.425705      	99.455376      	112.19516      	114.92786      	110.592636     	104.14776      	100.77994      	98.011566      	102.51526      	102.36909      	87.348145      	45.467285      	35.45605       	15.0329895     	5.5623255      	9.1845875      	14.213213      	5.0329614      	19.684753      	28.89255       	33.21005       	35.768467      	34.983337      	42.93311       	41.439407      	41.421326      	50.941875      	44.85513       	47.707825      	66.60822       	64.182846      	57.342766      	56.32645       	60.638         	71.79056       	61.555477      	60.901726      	72.337105      	63.996662      	64.01026       	63.75013       	69.62743       	66.9257        	65.07255       	67.80052       	70.23535       	63.702415      	55.98869       	62.549133      	75.59146       	115.50147      	170.92593      	185.00522      	161.50334      	164.66702      	150.37396      	165.17308      	150.19412      	143.6556       	136.07333      	145.25948      	134.45558      	132.99718      	135.63211      	124.23474      	134.14413      	135.28658      	135.01028      	124.8898       	
100.01611      	96.60006       	96.20805       	97.64904       	101.273155     	106.36396      	99.52162       	93.64444       	103.66822      	100.72322      	95.02113       	101.10938      	108.929306     	109.766        	105.08868      	109.215385     	107.53636      	107.639145     	104.73332      	105.06283      	106.85824      	105.25341      	104.47364      	104.02438      	101.49809      	106.90683      	99.98534       	97.09542       	96.32991       	91.58166       	94.145584      	98.62898       	94.27677       	99.35039       	100.408356     	96.30648       	95.30587       	95.90836       	99.24503       	96.51278       	95.46623       	108.47804      	72.642044      	32.725853      	20.575895      	10.391575      	5.554703       	4.7437797      	10.806756      	20.331654      	18.05488       	21.285198      	28.175022      	31.729612      	33.279182      	44.293015      	57.69314       	50.60383       	47.01245       	51.23445       	53.9457        	72.85596       	64.31768       	65.65367       	63.206333      	61.176308      	60.546787      	73.01501       	78.348694      	60.974716      	72.71227       	87.86972       	88.82031       	78.4125        	75.85662       	73.495415      	70.2549        	62.796516      	64.75737       	62.2857        	63.113743      	90.519035      	150.20978      	187.5277       	179.57645      	170.33112      	162.10818      	149.81708      	147.72307      	144.59166      	143.55597      	138.76361      	132.4455       	135.39093      	134.47597      	127.42444      	130.05713      	131.93613      	123.47254      	124.18043      	
98.51107       	95.659424      	95.60819       	94.83594       	94.69427       	94.19739       	94.42551       	93.04232       	95.23284       	94.247795      	94.32352       	95.35664       	97.83507       	94.76574       	94.915436      	93.04854       	97.26655       	100.40526      	104.54042      	103.79672      	106.59352      	104.732735     	107.082245     	102.52996      	102.82193      	103.00233      	100.40843      	97.66106       	95.614174      	95.1858        	97.81758       	102.30844      	95.434326      	95.06154       	100.86036      	98.01329       	97.607475      	94.93302       	98.571815      	96.809235      	98.87349       	98.94897       	78.867         	38.164227      	15.716343      	0.34514654     	1.8151417      	1.3856972      	7.049062       	14.226085      	15.935282      	16.932743      	29.814587      	37.49027       	36.687763      	40.062504      	42.48256       	44.37498       	41.758854      	46.80515       	54.48275       	54.44967       	50.612278      	53.203384      	65.94341       	57.37112       	57.95648       	58.508232      	66.750984      	56.018948      	56.086224      	69.670944      	67.577835      	65.97331       	67.576645      	70.43953       	67.365234      	69.07696       	63.602337      	62.310833      	70.29793       	91.63832       	132.55453      	183.41476      	176.71954      	163.09065      	160.52289      	156.75284      	148.05797      	155.83388      	145.12479      	144.20695      	138.65953      	143.01619      	138.56494      	135.81732      	127.70365      	128.26085      	130.85005      	127.09032      	
96.86712       	96.11386       	97.39282       	101.51244      	101.19573      	101.43147      	99.28206       	96.05364       	97.77702       	95.80305       	94.9726        	97.71346       	101.75635      	99.460014      	75.874306      	58.896023      	76.67306       	86.294266      	100.301445     	124.46122      	115.30274      	107.111824     	104.59766      	110.853035     	112.30237      	104.53376      	103.13158      	112.03072      	100.68665      	96.83184       	100.212975     	100.176025     	97.97783       	98.463905      	97.13654       	105.05119      	117.100655     	107.165695     	105.190056     	101.20976      	101.860664     	102.258064     	80.869514      	32.366093      	21.921253      	16.535429      	8.501267       	5.0113444      	16.64998       	30.734009      	28.867144      	26.697153      	28.173439      	36.557125      	35.68354       	41.68186       	44.291977      	52.77801       	50.115032      	50.052986      	60.440006      	56.82123       	54.975483      	54.854557      	63.477547      	59.87262       	59.14514       	65.88724       	63.109074      	63.403877      	57.071716      	68.20759       	87.79427       	83.34976       	77.698586      	71.35075       	70.19583       	65.04108       	65.05052       	64.17328       	64.50684       	89.67647       	143.10132      	172.77864      	173.98752      	164.2044       	163.61105      	157.09525      	149.10042      	148.01886      	148.73738      	141.91849      	138.3278       	140.24898      	136.79556      	130.85922      	130.57266      	134.8919       	133.88834      	128.70122      	
