# www.neaspec.com
# Scan:	 	AFM
# Project:	 	20251007_PS
# Description:	 	
# Date:	 	10/07/2025 15:58:42
# Scanner Center Position (X, Y):	[µm]	49.66	48.17	 
# Rotation:	[°]	0	 	 
# Scan Area (X, Y, Z):	[µm]	5.000	5.000	0.000
# Pixel Area (X, Y, Z):	[px]	100	100	1
# Averaging:	 	1	 	 
# Integration time:	[ms]	5	 	 
# Laser Source:	 	4.5-15 µm nano-FTIR laser
# Detector:	 	R
# Target Wavelength:	[µm]	7.502	 	 
# Demodulation Mode:	 	Fourier
# Tip Frequency:	[Hz]	238,800.109	 	 
# Tip Amplitude:	[mV]	13.000	 	 
# Tapping Amplitude:	[nm]	74.376	 	 
# Modulation Frequency:	[Hz]	0.000	 	 
# Modulation Amplitude:	[mV]	0.000	 	 
# Modulation Offset:	[mV]	0.000	 	 
# Setpoint:	[%]	79.75	 	 
# Regulator (P, I, D):	 	4.206850	8.625812	1.000000
# Tip Potential:	[mV]	0.000	 	 
# M1A Scaling:	[nm/V]	0.426	 	 
# M1A Cantilever Factor:	 	1,000	 	 
# Q-Factor:	 	452.3	 	 
# Version:	 	2.1.11536.0
86.36511       	82.39742       	86.05538       	83.56966       	84.16699       	86.6289        	79.90433       	84.307045      	85.06401       	79.745964      	84.6834        	87.253494      	78.792465      	85.12752       	85.8897        	79.58029       	85.46557       	85.50429       	80.81839       	83.41906       	84.78572       	83.64588       	85.25876       	77.77461       	73.10294       	75.08119       	71.93663       	71.666214      	76.08676       	74.43776       	68.58175       	71.64865       	74.08216       	74.12808       	70.87332       	73.59806       	73.39215       	68.5992        	73.32382       	74.035706      	69.07681       	70.22872       	72.15925       	70.07665       	70.199524      	69.7879        	67.83972       	69.55852       	65.40402       	67.53017       	70.736565      	65.13431       	62.563843      	67.79203       	65.63966       	62.323154      	65.186714      	70.04957       	71.48934       	69.66614       	70.15968       	71.8085        	69.316574      	66.42257       	68.97916       	72.36221       	67.72426       	65.97906       	72.43506       	66.96584       	65.19899       	65.09561       	68.17907       	71.11114       	65.297714      	64.15907       	69.71895       	65.91246       	66.050545      	69.22852       	65.94459       	66.37732       	66.640945      	64.989624      	70.37255       	68.529495      	64.473076      	66.78563       	57.80442       	54.352505      	63.29265       	57.730637      	54.964024      	60.736553      	56.900627      	55.19966       	59.907516      	59.797626      	57.55581       	54.753155      	
111.75326      	113.30604      	115.51086      	111.109665     	112.06898      	114.21648      	109.97474      	113.3119       	116.057175     	111.090126     	113.871826     	117.45927      	112.833305     	116.16011      	117.94267      	112.210396     	116.02734      	114.887        	116.47061      	113.260735     	105.58862      	103.03988      	105.68027      	100.7743       	95.247314      	99.946846      	98.17749       	95.18729       	99.4409        	101.73409      	100.39296      	98.50121       	98.383095      	98.744225      	99.616035      	99.213905      	97.3792        	101.12495      	98.04076       	96.66264       	100.23797      	102.23661      	98.47508       	100.08745      	102.56768      	98.80457       	103.63172      	105.08125      	100.64726      	102.9345       	103.67537      	100.90103      	104.219284     	102.81095      	99.817795      	100.432        	101.79874      	105.4229       	113.16652      	107.588104     	105.6003       	110.69042      	108.994354     	107.546074     	109.734955     	108.59371      	106.90362      	110.91646      	107.90409      	109.368454     	111.56703      	106.91361      	105.94735      	110.87697      	108.45528      	108.55114      	109.128716     	106.01556      	107.66026      	112.662125     	108.58727      	105.54809      	112.25719      	106.628456     	104.68701      	109.57213      	106.403694     	99.0944        	97.647835      	97.43442       	99.069916      	103.432724     	99.82863       	101.08406      	104.320015     	103.38388      	98.6315        	97.90931       	99.83777       	101.40054      	
104.58353      	104.26486      	107.06068      	104.731674     	105.633354     	104.676796     	106.29235      	108.87309      	107.36898      	108.41724      	110.52848      	107.270874     	111.57508      	115.62655      	109.84069      	111.453445     	114.55489      	100.67257      	96.93349       	98.71119       	93.700935      	92.27154       	97.26513       	95.444016      	94.789955      	95.8223        	91.94697       	94.05944       	96.715454      	88.2154        	90.79896       	93.05694       	84.37629       	83.78869       	86.79196       	84.87572       	87.25822       	85.92517       	85.42252       	87.2366        	89.91253       	88.199905      	89.78804       	90.20383       	87.66317       	89.72828       	89.228424      	85.27766       	87.17494       	86.04362       	82.99606       	88.282         	88.283134      	86.56031       	94.72511       	96.83157       	97.3039        	107.40898      	104.05249      	98.76156       	107.23792      	103.15488      	103.929726     	110.00794      	106.183136     	104.25678      	110.66288      	108.05197      	108.271355     	112.1348       	107.93979      	111.38492      	115.11522      	111.366        	112.8153       	119.206        	111.04198      	113.96437      	116.99439      	115.215706     	120.6194       	118.709305     	119.271416     	125.16741      	125.455734     	124.01785      	118.736244     	112.389725     	109.712        	109.09356      	108.133286     	113.665726     	110.07665      	99.26688       	98.21424       	96.8076        	90.43227       	88.17189       	88.56872       	87.2164        	
87.28882       	90.01972       	86.503784      	89.43039       	87.489975      	88.11105       	89.60384       	87.88071       	86.179596      	91.08911       	86.81059       	86.9152        	93.35845       	87.11391       	87.25333       	89.35144       	89.81636       	88.647224      	90.09938       	89.612434      	90.98633       	88.39993       	90.29088       	94.873245      	93.74116       	84.686165      	83.02461       	85.83113       	84.567245      	83.48461       	85.312         	85.30699       	84.30092       	82.12228       	88.94341       	85.9683        	80.75447       	84.388374      	89.22859       	84.96304       	82.364555      	87.97912       	87.10974       	81.480606      	87.57617       	87.39352       	84.69598       	83.168076      	87.13225       	88.44552       	85.39275       	81.99904       	87.36164       	87.11547       	79.46277       	85.17772       	88.97066       	84.403336      	90.274704      	97.89627       	93.52161       	86.575714      	94.6844        	94.131454      	90.91857       	93.95204       	92.0868        	96.07933       	96.207954      	90.95688       	96.43128       	99.97462       	88.83517       	94.06603       	96.88295       	93.08569       	98.420166      	99.39172       	96.39706       	97.14554       	98.27778       	102.17471      	103.87529      	96.99589       	93.79979       	89.84232       	77.54353       	78.09653       	80.342804      	73.888115      	70.46011       	77.76542       	77.76165       	77.85593       	83.03157       	89.16615       	90.0549        	90.38952       	90.63904       	88.94775       	
94.0468        	91.28986       	94.76073       	95.03          	93.35485       	96.27139       	93.498405      	93.14761       	98.593315      	93.831215      	93.3972        	98.08784       	96.73113       	94.89091       	100.83092      	96.62657       	96.49702       	98.52396       	98.496376      	101.02006      	98.66996       	97.61131       	100.88392      	104.40606      	97.634575      	98.31072       	98.42493       	88.21799       	91.27885       	94.29457       	92.8704        	95.67073       	94.26199       	91.89533       	96.047455      	94.27369       	91.77946       	98.00091       	93.79263       	90.05104       	97.45369       	94.46814       	90.22042       	96.71952       	95.477036      	90.345345      	95.40113       	94.24397       	93.299934      	97.34217       	90.69835       	91.97923       	97.37199       	91.10698       	91.40038       	94.214935      	91.15794       	94.46506       	100.99947      	99.12465       	103.52173      	103.25395      	95.60329       	102.57259      	104.04477      	97.03048       	104.009796     	102.90962      	99.28239       	102.23632      	102.68087      	102.82048      	105.385124     	102.79034      	102.91672      	106.947784     	105.25849      	103.80974      	109.310585     	106.6258       	105.83644      	109.04451      	105.14562      	100.76671      	92.91605       	83.161255      	82.22808       	81.0206        	78.12779       	76.54471       	77.13554       	74.99549       	78.93289       	79.447105      	82.25446       	88.256195      	94.83704       	91.71015       	89.91731       	91.60543       	
95.95674       	100.83841      	96.50887       	97.10261       	100.933914     	95.355354      	98.10155       	101.31656      	95.58549       	96.55572       	100.1212       	96.71581       	97.48219       	99.87903       	97.00313       	97.34388       	99.299385      	97.42176       	100.103935     	99.82781       	97.16256       	100.23193      	102.74509      	100.2623       	101.8607       	103.02725      	90.06782       	91.43078       	91.82509       	91.7827        	96.00927       	91.446         	89.16431       	94.60231       	92.08866       	90.31888       	93.0584        	93.054405      	90.54058       	92.306404      	90.48051       	92.878         	93.069176      	87.07048       	90.631805      	91.84743       	86.52032       	91.867905      	91.33882       	85.77343       	90.35983       	90.06312       	86.81285       	88.64905       	89.5912        	83.37855       	88.67672       	93.19454       	93.89708       	100.25894      	93.207184      	91.412186      	97.65351       	96.41914       	92.776         	96.815994      	97.810394      	94.693855      	95.832565      	96.70801       	98.72611       	99.625404      	94.76092       	97.85901       	100.97127      	97.735146      	99.23058       	102.58068      	101.59486      	99.56885       	105.1281       	104.74829      	94.54146       	86.30391       	82.256836      	77.105034      	73.99504       	72.859825      	71.34053       	71.03389       	67.59728       	69.919945      	75.82366       	75.30275       	74.8468        	84.57368       	90.0098        	98.80861       	100.237236     	100.08756      	
92.448715      	93.86476       	93.98237       	93.21724       	95.86324       	94.37452       	90.75036       	94.68336       	98.26461       	90.411         	91.52438       	97.94603       	92.00837       	93.099174      	95.568085      	95.474525      	91.51582       	95.50078       	95.34952       	96.47615       	94.19646       	93.041176      	99.01725       	97.98378       	94.650154      	95.584335      	91.02363       	84.625946      	86.98339       	93.79613       	87.666275      	85.8722        	91.605965      	88.53364       	90.75029       	89.35136       	88.644936      	91.871895      	90.729454      	85.25032       	93.23097       	95.10367       	83.525955      	88.44927       	91.909256      	92.841354      	93.51433       	91.56112       	94.451675      	89.57962       	91.70642       	96.79943       	98.319954      	90.466255      	93.60585       	96.963264      	95.62231       	98.917274      	99.34362       	98.898766      	97.51161       	98.10416       	100.62699      	101.841675     	95.83321       	98.629105      	103.905464     	98.884415      	98.53755       	103.4966       	102.60252      	98.62993       	103.5277       	106.381035     	102.42736      	105.05071      	105.06642      	107.48169      	109.315544     	107.414444     	108.26978      	105.83968      	91.11921       	82.72224       	85.540276      	81.02715       	74.278435      	76.08192       	74.68381       	70.02927       	72.485016      	73.409706      	69.68304       	76.403305      	81.366684      	87.257164      	98.644325      	102.85563      	100.16134      	102.26918      	
93.327095      	96.546425      	93.90836       	90.20269       	94.393295      	94.89591       	90.62259       	96.669205      	91.49328       	89.57919       	93.149284      	91.19548       	92.870575      	95.16318       	90.21672       	90.4394        	97.912766      	90.09294       	87.109184      	99.60943       	90.06379       	88.98842       	95.36345       	92.63756       	93.14241       	93.79423       	90.78161       	94.20753       	95.6847        	89.343056      	94.22738       	96.007576      	88.61783       	95.40585       	96.25882       	91.25225       	97.72203       	97.631256      	90.65185       	97.235344      	98.0437        	92.58298       	99.35315       	95.76944       	95.036736      	99.87975       	95.61364       	96.66711       	103.354965     	96.08388       	93.98174       	100.10856      	99.35034       	95.575935      	100.60978      	99.08341       	97.526405      	98.00883       	99.50551       	101.08814      	98.55404       	99.6208        	100.238235     	100.58827      	100.43692      	99.20577       	103.827805     	101.814896     	97.42293       	105.70409      	106.83405      	99.90516       	103.57837      	108.57047      	103.731155     	104.54994      	110.66241      	107.49792      	108.134026     	108.57742      	106.43363      	100.581696     	88.12154       	83.23581       	82.889854      	77.69526       	72.85806       	76.13027       	77.53893       	70.876114      	71.37454       	70.72777       	72.843254      	79.428474      	81.22708       	87.93965       	104.2421       	104.19469      	105.06227      	105.35467      	
95.50485       	91.18629       	97.20907       	92.39062       	91.29337       	97.70765       	92.711464      	92.556755      	97.45621       	93.21001       	90.65775       	95.60741       	94.84448       	93.63282       	94.703545      	91.64856       	94.953476      	96.17403       	91.03649       	94.83739       	98.0232        	90.57177       	91.00305       	93.10442       	94.711044      	95.55612       	93.5936        	93.80191       	91.865105      	92.69544       	97.43367       	91.88395       	93.70971       	97.4329        	92.23865       	93.9104        	99.68663       	93.38444       	92.54971       	98.65958       	93.88219       	95.65427       	99.58276       	93.65233       	97.350235      	99.374626      	92.865585      	100.08679      	101.46895      	92.574776      	99.69896       	100.53259      	95.86131       	100.55059      	99.6043        	96.76344       	101.04253      	100.44597      	98.37683       	104.96028      	99.850815      	96.431145      	104.03142      	99.9955        	100.796036     	107.12712      	102.076775     	100.0735       	106.93419      	103.64137      	101.70833      	109.74627      	105.22798      	104.97081      	109.38875      	108.01815      	108.89731      	112.08831      	110.30467      	107.27017      	107.563095     	94.92351       	87.909065      	86.56406       	75.18612       	71.347916      	74.93165       	76.9156        	74.87901       	75.58477       	75.07664       	70.03712       	74.55071       	79.7878        	80.40239       	89.05216       	103.230484     	103.456665     	104.1787       	105.22568      	
93.43271       	99.89481       	98.95018       	100.44826      	98.13249       	97.18666       	100.58304      	97.63345       	96.64973       	99.650024      	99.90568       	94.744354      	96.577774      	100.97848      	98.77547       	95.24155       	98.33511       	99.87111       	94.51623       	97.184586      	98.885445      	98.48839       	93.786095      	96.609604      	101.26608      	97.23481       	92.15994       	98.93746       	98.550995      	93.75744       	96.605385      	100.44662      	96.155045      	95.08578       	99.782265      	99.334015      	96.764565      	94.70952       	98.76908       	100.75089      	96.578995      	96.24571       	101.117035     	100.05615      	93.596504      	97.76086       	99.47403       	100.03264      	99.167854      	99.31661       	99.55059       	97.566925      	100.5413       	102.81213      	98.12702       	98.85079       	103.7347       	99.45915       	99.528885      	103.27824      	102.92879      	98.20311       	102.02843      	105.04601      	102.77819      	101.1287       	102.679924     	106.32884      	105.64933      	103.17797      	107.69649      	108.621864     	105.69279      	106.627106     	113.30119      	110.93151      	107.70134      	113.884224     	115.4992       	111.91784      	106.30275      	99.887825      	91.40352       	81.15641       	80.24841       	81.4954        	78.59937       	75.40923       	80.70816       	82.86445       	78.85921       	76.00732       	80.774445      	84.832016      	83.20281       	87.17873       	110.63473      	109.42062      	106.67548      	103.98446      	
98.81554       	103.35575      	99.67272       	100.958244     	100.89656      	99.54703       	102.582634     	99.191605      	99.496056      	101.02348      	97.89186       	96.76391       	103.04632      	99.7794        	93.42626       	99.77768       	98.164635      	96.24273       	99.1333        	95.98308       	95.63698       	98.27353       	93.14941       	96.75876       	99.951385      	91.311356      	92.8246        	99.00093       	93.38887       	93.88829       	98.9382        	92.573746      	94.75737       	94.79469       	94.800865      	96.18924       	95.557625      	91.8864        	96.33564       	96.91361       	92.16617       	97.27933       	96.52062       	91.07856       	93.59207       	96.44836       	95.66132       	93.69205       	95.7939        	95.79898       	94.418755      	96.79373       	97.67011       	97.85363       	96.47302       	93.04611       	97.095215      	100.17273      	94.573975      	95.80927       	101.76175      	97.15488       	93.746506      	102.63936      	99.5055        	94.54428       	98.458694      	102.599815     	100.77279      	96.43639       	100.56923      	103.87865      	101.327644     	101.12817      	104.41132      	105.74776      	103.124504     	102.73645      	107.0188       	109.32791      	103.345215     	96.704216      	89.898796      	77.97364       	75.5244        	78.809456      	73.73044       	70.60303       	77.03972       	75.10346       	69.12114       	75.10413       	74.65351       	75.139305      	78.66415       	86.42538       	104.31784      	101.74577      	98.576324      	97.47167       	
88.33306       	92.13561       	85.901764      	89.416084      	92.051544      	84.98941       	88.424644      	93.59482       	87.18767       	85.78385       	91.925446      	87.43546       	87.26562       	92.42988       	83.3116        	89.77962       	92.505745      	82.408585      	90.583015      	93.436844      	81.28976       	87.90935       	90.1162        	85.6204        	89.1646        	90.58908       	85.71978       	91.039536      	86.68148       	85.99327       	95.91027       	87.652336      	83.72043       	94.716675      	87.87964       	86.43719       	94.9431        	88.934456      	87.33888       	93.62698       	87.63028       	91.522415      	95.215904      	86.90089       	91.72314       	96.56573       	88.52601       	92.06499       	97.94726       	89.24055       	91.34416       	94.152374      	93.26866       	95.70958       	94.559135      	92.137405      	95.31921       	95.32582       	93.574936      	98.92844       	97.05087       	92.18001       	99.39716       	98.84681       	95.43395       	100.2059       	97.87475       	96.53927       	101.22847      	100.73323      	97.069534      	103.595406     	99.25911       	99.600716      	108.84721      	100.785446     	100.64971      	109.880356     	104.85926      	103.50153      	111.91441      	99.99073       	91.56574       	91.0371        	82.50843       	80.39188       	79.04997       	74.47343       	79.37056       	80.773994      	71.92695       	76.68549       	85.136024      	76.23928       	82.50378       	91.245026      	103.77186      	103.750244     	104.59455      	105.59913      	
93.13342       	92.1615        	93.759445      	92.617256      	91.552895      	89.397446      	93.1009        	95.25261       	89.160576      	90.84665       	95.55179       	90.764046      	90.27795       	93.31242       	93.3728        	89.79389       	90.438515      	93.07983       	95.30579       	89.92992       	89.23357       	95.461716      	91.4178        	88.07166       	96.58993       	93.127556      	88.38046       	91.90264       	94.36902       	92.12483       	92.801544      	91.853035      	93.94518       	94.17695       	89.58485       	95.53202       	95.307686      	87.44759       	93.27628       	99.497314      	90.371544      	90.30456       	98.81271       	92.87247       	93.91472       	96.866745      	93.97956       	94.896904      	97.86247       	92.727646      	98.85993       	97.61811       	90.29078       	96.33552       	97.32995       	94.5085        	96.75385       	99.98463       	92.873535      	96.482315      	99.29908       	96.10777       	97.95723       	97.94221       	95.51009       	97.161705      	101.14075      	98.199936      	99.41395       	102.16837      	97.65347       	99.16314       	102.75684      	99.496826      	102.25494      	102.7036       	99.66232       	102.82862      	109.5576       	101.51048      	104.16529      	108.717476     	95.27272       	89.31801       	86.86842       	79.086334      	75.42813       	79.7093        	77.806435      	77.243484      	76.759346      	72.31208       	78.19854       	84.5138        	83.948105      	105.84665      	103.81315      	99.50933       	97.13142       	94.72783       	
94.547066      	93.500175      	93.829185      	88.22608       	92.720856      	96.90988       	87.65165       	92.21634       	99.46652       	88.45329       	89.5171        	94.191216      	90.885376      	94.10017       	92.92652       	88.41446       	93.73573       	93.606674      	88.65976       	93.591705      	94.7726        	88.91609       	92.619194      	94.73878       	90.972404      	92.271484      	94.148384      	90.174576      	92.23469       	96.42231       	90.88042       	94.61734       	94.70991       	89.2684        	96.59677       	95.599075      	90.30793       	94.73278       	95.45474       	90.95114       	97.612564      	96.25801       	90.95642       	97.62073       	95.79676       	93.15993       	98.503006      	94.2448        	92.67073       	101.81789      	95.40063       	92.78018       	103.5374       	95.57272       	91.36577       	96.727875      	96.79449       	97.11182       	99.30876       	94.672356      	97.217735      	98.80614       	94.162506      	98.37249       	101.80542      	93.8344        	96.394005      	101.3155       	97.86915       	98.378334      	100.78487      	99.27844       	98.72253       	98.36296       	101.99871      	102.124886     	98.8374        	99.6693        	104.959366     	102.82357      	100.665726     	106.4143       	104.86479      	94.14137       	83.59657       	84.02178       	83.71839       	79.503914      	76.780304      	79.6755        	77.62371       	74.28019       	83.58418       	85.55379       	86.77015       	100.39906      	101.55378      	99.14704       	98.2032        	95.87724       	
100.66516      	98.99549       	99.99584       	104.66328      	101.8851       	101.924545     	103.3864       	102.08269      	101.154526     	103.389786     	104.75084      	102.92449      	103.06325      	102.27396      	103.85896      	103.26674      	100.4211       	105.895294     	103.84225      	99.31021       	104.15629      	107.38522      	98.37662       	100.966675     	105.72889      	100.470985     	103.391045     	102.51336      	100.36042      	103.037704     	100.157845     	99.09537       	105.93087      	99.83806       	96.17011       	104.11625      	100.32614      	95.394035      	102.74134      	99.15828       	96.53863       	99.23073       	99.8883        	99.311554      	99.30634       	97.42817       	98.88331       	102.34758      	96.27714       	95.6501        	104.072876     	95.637375      	93.30701       	97.95623       	98.34618       	97.20523       	97.96591       	96.83416       	96.05307       	96.88984       	98.16589       	96.85179       	98.04672       	96.46791       	96.90301       	100.08188      	95.92395       	97.6123        	99.15937       	97.78277       	95.955444      	100.55773      	100.01269      	96.37672       	99.42242       	99.708244      	98.016846      	103.91751      	99.18686       	100.323654     	103.31886      	98.86933       	101.38558      	108.1644       	94.99631       	88.33061       	93.015434      	86.982376      	80.78739       	85.30698       	80.33801       	82.27914       	87.48927       	91.749626      	101.35997      	105.40578      	100.46217      	95.26655       	95.84427       	97.24561       	
91.27492       	97.12964       	92.55698       	86.99816       	92.345825      	94.922806      	91.51234       	92.35223       	92.96876       	90.90459       	91.36954       	93.48658       	92.50792       	91.87821       	93.89123       	91.43468       	92.47775       	94.98429       	92.485146      	92.43521       	94.24506       	89.55527       	95.84283       	95.44616       	89.09549       	95.02907       	95.89396       	90.063736      	93.464554      	97.45706       	91.43175       	91.74771       	98.15894       	94.85554       	94.59781       	94.69382       	92.322495      	96.958046      	97.13532       	91.27714       	96.15955       	98.734604      	91.17641       	92.50216       	98.000046      	94.269585      	95.68945       	95.90502       	93.03223       	95.75978       	96.07437       	94.16992       	95.01395       	98.12601       	92.31784       	95.909584      	98.83294       	92.34445       	95.3965        	97.23768       	92.73323       	96.20013       	98.314995      	91.49801       	95.88631       	96.58203       	91.63952       	97.05443       	97.05302       	89.09474       	96.85844       	95.37122       	90.98417       	97.618866      	94.79988       	90.81123       	97.43331       	94.96001       	90.19127       	98.38516       	95.66784       	89.07801       	96.28974       	92.16411       	94.68226       	100.3482       	92.76955       	86.22815       	86.82658       	79.09328       	79.740776      	84.880684      	85.29381       	92.657036      	93.91691       	91.807175      	93.34718       	94.79235       	94.512955      	94.58875       	
92.50862       	89.79819       	92.092766      	91.999115      	89.03893       	93.60259       	93.36199       	88.48178       	92.07959       	89.231575      	91.6624        	92.17734       	89.32878       	91.869514      	90.203606      	88.34112       	92.74196       	93.378494      	86.71256       	90.43116       	94.036736      	87.12297       	91.38597       	91.818695      	87.587456      	91.68094       	92.19259       	87.557         	90.46166       	89.65004       	85.67164       	94.480095      	92.40636       	83.61431       	94.07955       	91.331024      	85.651566      	93.36988       	93.04274       	86.49313       	90.88635       	91.955536      	90.804085      	92.60457       	87.70802       	89.86039       	95.971146      	88.86178       	87.48341       	98.63075       	89.30634       	84.06791       	92.441895      	90.36275       	90.009796      	92.139824      	89.610725      	89.65913       	90.00072       	89.97498       	91.865814      	91.94063       	86.44894       	90.969246      	93.96916       	85.99207       	90.92612       	91.855804      	87.50841       	88.04107       	90.515884      	90.12758       	89.14194       	88.36113       	87.44898       	89.83056       	89.78577       	86.22482       	91.80616       	90.24639       	84.65735       	90.37636       	93.19744       	86.327446      	88.563934      	93.410034      	87.97823       	90.867935      	92.26978       	88.83383       	88.49472       	90.91434       	91.7096        	92.29271       	90.38447       	87.52389       	89.66112       	92.07784       	93.52401       	92.65346       	
93.490845      	93.507774      	93.93613       	91.96156       	90.44659       	95.24565       	93.66359       	91.4954        	94.25404       	91.65816       	91.507515      	95.101555      	92.422745      	90.71907       	95.00586       	92.311325      	89.545494      	91.48718       	94.557014      	93.20317       	90.5931        	92.54434       	90.85695       	94.99448       	94.21618       	89.09766       	93.64725       	94.28071       	88.14978       	92.976616      	97.50731       	88.711685      	90.36878       	96.78371       	92.41893       	91.596886      	91.22264       	91.69676       	94.33698       	90.45185       	91.84799       	94.47065       	90.324295      	87.929596      	96.32539       	95.000046      	86.99801       	92.330864      	95.909836      	87.94896       	94.77949       	94.17168       	90.97673       	92.79741       	93.019585      	93.62618       	94.83731       	91.52927       	89.87491       	97.04448       	94.41122       	87.48739       	96.36451       	93.79138       	88.64095       	92.093376      	90.847244      	92.659256      	96.61152       	89.70093       	90.73388       	96.142876      	90.25377       	91.41535       	96.1833        	88.80114       	91.40022       	93.473335      	91.10116       	93.69157       	94.152275      	88.515915      	92.76502       	95.52772       	87.665825      	94.59752       	94.12099       	88.411         	93.89913       	95.21472       	89.4054        	93.29595       	93.59062       	88.28967       	96.0368        	96.22497       	87.79941       	85.931915      	90.50264       	93.73596       	
88.094604      	94.168335      	86.02603       	91.09516       	90.59091       	92.02005       	91.9544        	90.92387       	92.396225      	91.71545       	91.06597       	93.21514       	94.84715       	88.868484      	92.07569       	93.57915       	90.49529       	92.376396      	92.40073       	91.826385      	91.49996       	91.9161        	92.83068       	94.61683       	90.526276      	89.923225      	95.95565       	91.34056       	90.07671       	94.15919       	94.21476       	90.158455      	92.34346       	95.55465       	92.96472       	92.58586       	91.711586      	93.341385      	95.775955      	91.414505      	92.07296       	97.85045       	93.172806      	88.83764       	92.86292       	95.679214      	93.5846        	91.60239       	94.43558       	92.93417       	90.46082       	96.062996      	93.14163       	90.57063       	94.24679       	92.96192       	93.65605       	94.00359       	94.65711       	93.070114      	93.78682       	92.54646       	94.879074      	95.1643        	89.6987        	93.20675       	95.04638       	92.63944       	92.8436        	93.72055       	93.00647       	91.32952       	93.68754       	93.34252       	94.64692       	91.65263       	90.69161       	94.41942       	95.26537       	90.2384        	93.077095      	97.30351       	89.66181       	90.89955       	93.01519       	93.919525      	95.42297       	92.10318       	93.5486        	93.95748       	92.82179       	94.679214      	92.956665      	94.15093       	93.68005       	92.95631       	92.259384      	93.91017       	95.463486      	95.70843       	
94.828865      	88.648605      	89.76008       	94.36408       	90.3424        	92.57427       	95.67761       	90.82678       	90.902916      	95.05307       	92.64886       	91.16149       	93.75842       	90.71819       	94.3341        	92.20987       	91.0043        	96.41875       	93.178986      	87.559296      	93.55736       	93.58043       	91.31657       	93.19915       	91.92439       	93.56483       	90.37996       	89.70839       	94.78814       	93.88536       	86.68483       	91.54196       	95.40812       	87.74316       	91.95365       	94.488686      	89.68042       	91.17622       	92.41995       	93.456184      	93.4474        	91.39232       	90.2632        	94.80498       	92.205086      	89.862335      	96.397705      	93.06413       	89.53818       	92.434456      	93.34659       	92.1766        	93.536385      	92.57484       	91.122185      	92.4815        	92.77398       	93.52137       	93.0734        	90.57376       	92.7489        	94.22066       	90.029335      	92.856445      	94.94686       	91.48348       	89.12541       	96.69657       	93.61755       	89.922775      	93.12568       	92.549         	92.17541       	93.01514       	93.49169       	91.97778       	94.24535       	89.95995       	92.830475      	97.3087        	89.721596      	90.198235      	97.049324      	89.97588       	91.88056       	96.50734       	92.07282       	91.29361       	97.52855       	92.163734      	93.7466        	96.413605      	90.35331       	92.40878       	94.00704       	93.57523       	94.14604       	95.45515       	95.95647       	96.06829       	
95.97091       	92.158806      	96.13123       	90.1689        	94.08806       	93.435555      	91.84675       	97.72747       	92.411865      	89.6669        	94.71554       	92.70532       	91.16077       	95.98445       	93.06938       	90.31327       	96.24684       	92.464325      	90.78311       	95.44964       	91.57033       	92.055695      	94.87355       	91.38745       	93.24572       	97.42642       	89.234634      	90.6858        	97.059135      	90.256836      	91.99936       	94.58776       	92.33589       	91.19948       	94.3304        	93.622856      	93.31782       	95.78632       	90.210625      	93.17946       	98.14633       	90.686935      	93.715         	98.2819        	90.647         	90.05066       	95.73744       	94.32258       	93.6115        	94.30248       	91.49772       	94.37544       	96.30974       	89.46147       	94.664024      	96.97287       	90.07396       	93.14238       	95.4184        	92.08634       	94.60402       	94.39098       	91.015945      	93.36805       	93.82445       	91.964615      	93.35805       	92.225174      	91.825615      	94.02192       	92.92566       	91.71016       	95.58097       	92.89844       	89.20197       	94.872406      	96.190674      	89.30618       	92.942276      	94.760445      	89.85429       	92.632095      	92.58449       	91.92801       	93.71099       	91.11164       	93.16806       	98.591805      	89.6838        	89.74061       	98.158356      	91.283615      	89.068085      	96.647545      	93.84651       	89.4866        	92.77042       	95.00642       	95.13075       	93.979904      	
97.706314      	87.59237       	94.02775       	89.89864       	93.584404      	94.895874      	88.97669       	92.64815       	93.90819       	89.51073       	91.69244       	93.325165      	89.56372       	92.713394      	91.54508       	91.498764      	93.20891       	90.382484      	90.61087       	92.86894       	91.03205       	91.97969       	94.704834      	90.36362       	91.22901       	94.073784      	91.10661       	90.74995       	93.133255      	89.787605      	91.556694      	94.158         	90.09822       	91.91662       	93.4962        	89.01714       	94.177574      	95.94301       	89.23628       	91.83697       	96.41949       	89.02233       	93.88371       	96.09174       	90.87066       	92.22792       	93.41502       	92.95748       	94.62202       	90.48233       	91.227264      	95.62458       	93.21799       	89.083786      	97.07219       	95.68396       	88.16579       	92.73024       	93.55246       	94.905235      	93.52782       	92.12345       	93.472         	92.93134       	92.45011       	93.68518       	94.958755      	91.82755       	91.95488       	94.773155      	93.32155       	92.802414      	93.068146      	94.73417       	93.047066      	91.91052       	95.87106       	95.28694       	90.92903       	92.80938       	90.75077       	93.843796      	94.34813       	91.93376       	92.62301       	94.432724      	90.83284       	92.172         	96.874596      	89.95403       	92.70291       	94.12256       	91.2528        	95.06367       	95.296844      	91.26587       	91.675575      	94.59443       	96.214775      	94.64896       	
95.767365      	89.33045       	94.92856       	93.10237       	90.17447       	95.2628        	94.64357       	89.86996       	92.771126      	93.242195      	93.34225       	94.698296      	89.49565       	93.4112        	97.26241       	90.55127       	91.77037       	98.93403       	90.61772       	88.474815      	91.91078       	92.588486      	95.925446      	91.69072       	90.86984       	94.54152       	90.441895      	91.14188       	94.85413       	91.763214      	89.16979       	94.278656      	91.55488       	91.29395       	94.1065        	90.42024       	92.96684       	92.4515        	89.953094      	94.485306      	94.79161       	87.971115      	92.835976      	95.96634       	90.49651       	93.34378       	95.056145      	91.82646       	92.95149       	92.890175      	94.5005        	95.00848       	92.370445      	91.411446      	95.8826        	94.9506        	89.27471       	94.9617        	95.560684      	89.68266       	91.32039       	93.207535      	93.966835      	94.14519       	91.14466       	92.509026      	92.97928       	91.03451       	93.47375       	93.69296       	92.17535       	92.39699       	92.74157       	93.379486      	93.57983       	91.278725      	93.77314       	93.36011       	90.29545       	94.15584       	94.88586       	89.74703       	92.188194      	94.92563       	90.79427       	93.33847       	93.072235      	91.90685       	92.86014       	92.34211       	91.61242       	95.16574       	92.634964      	90.38525       	93.812126      	91.80307       	92.27874       	94.274864      	95.18239       	96.39648       	
92.645096      	91.77025       	94.779945      	91.162224      	91.97286       	94.188705      	91.3482        	89.58997       	97.605194      	94.49828       	87.64841       	94.7794        	93.19145       	90.451706      	94.03585       	92.73951       	91.92638       	93.30766       	90.42749       	93.38077       	97.58864       	88.07529       	91.32202       	96.36459       	90.0898        	91.92912       	94.585236      	92.36646       	91.183105      	93.23995       	91.73013       	95.68498       	93.47491       	88.24007       	95.76957       	94.40445       	87.94994       	96.45509       	94.15437       	88.34699       	94.86803       	92.988396      	90.16132       	95.30474       	93.31856       	90.16597       	94.06508       	93.37302       	91.58355       	95.00054       	91.463486      	90.77208       	96.768265      	92.64966       	90.34543       	96.96532       	91.626305      	89.679756      	93.872406      	94.88041       	92.80379       	94.91985       	92.01091       	92.31661       	95.689255      	91.33204       	94.32873       	95.70043       	93.921394      	91.91527       	96.0776        	94.275185      	94.76142       	95.46396       	91.74206       	93.32671       	96.101776      	93.09651       	94.171074      	95.74985       	93.386215      	92.023605      	97.223404      	94.001434      	94.1057        	96.17227       	91.48772       	95.392204      	95.56932       	91.675835      	93.01005       	96.21791       	91.974106      	94.28031       	97.68827       	92.715454      	90.95495       	93.87474       	95.72941       	97.53357       	
88.201454      	94.94178       	88.38952       	95.187126      	93.54375       	88.74124       	98.41542       	93.98891       	87.30456       	97.764786      	93.66151       	89.18824       	97.35765       	92.82495       	87.880356      	95.52033       	93.269844      	89.85527       	97.67286       	90.96159       	90.12312       	97.11675       	92.68672       	90.94862       	98.27471       	92.378265      	89.056595      	95.00809       	91.581         	93.703354      	98.38252       	89.38451       	91.97225       	97.08571       	89.64192       	92.873         	95.754326      	90.18686       	92.4472        	93.66535       	90.78608       	97.06579       	94.99007       	88.02905       	96.96901       	95.00298       	89.081635      	97.61682       	94.40689       	90.66944       	95.388336      	93.636345      	92.550835      	96.73597       	92.64525       	91.767685      	96.39183       	90.34931       	93.57649       	97.553154      	90.90019       	91.83843       	96.29182       	93.113556      	91.31816       	96.812         	92.483246      	91.063965      	94.32689       	93.40243       	92.79789       	93.79243       	91.70704       	92.90941       	95.97555       	90.8776        	93.459755      	96.07187       	89.97752       	90.97069       	93.246376      	92.240204      	94.63643       	93.06511       	89.888916      	93.302155      	95.03451       	90.45224       	93.14427       	94.13057       	91.93886       	93.205765      	92.72607       	93.16601       	97.24141       	93.203766      	90.07175       	92.51481       	95.076164      	96.64359       	
88.670685      	93.85959       	90.82006       	94.91584       	90.907104      	89.23547       	95.669556      	92.54637       	89.89433       	94.48399       	93.066025      	89.65721       	92.51363       	91.02808       	92.71565       	95.28216       	88.57874       	91.04187       	95.8474        	89.63007       	89.363335      	95.10616       	90.55809       	90.50284       	93.07408       	92.69038       	92.575165      	94.33052       	90.05739       	93.27837       	95.66161       	90.115654      	94.53687       	95.731766      	88.84469       	93.94013       	95.45836       	91.02983       	91.05519       	94.94955       	88.89479       	95.12099       	94.630844      	88.66012       	94.79792       	92.61964       	88.16989       	97.7076        	92.72802       	86.93724       	98.775314      	93.51676       	87.841324      	98.96375       	93.57327       	88.01275       	96.28981       	93.71687       	93.04932       	95.92901       	90.456535      	93.238686      	99.66716       	89.28862       	91.07357       	100.84052      	88.862434      	87.275116      	95.71355       	91.20804       	92.9857        	96.72658       	89.474174      	91.49246       	95.457344      	90.10266       	93.550224      	94.95704       	88.70504       	94.06787       	93.720695      	90.08593       	94.0856        	94.751656      	89.50463       	92.383224      	95.75677       	89.67778       	91.6153        	93.78946       	90.06303       	90.79636       	94.9875        	92.41317       	92.67894       	93.42901       	91.18429       	90.25647       	93.389694      	92.685196      	
92.55114       	95.50212       	93.80507       	89.934166      	97.42746       	92.49537       	87.34317       	94.45812       	93.431305      	91.41231       	95.982834      	90.992386      	89.74108       	95.69667       	93.597824      	89.63276       	96.071884      	94.752594      	89.96171       	94.5558        	92.97299       	94.472115      	95.22531       	90.3935        	92.612175      	93.66914       	92.80014       	91.62833       	94.391396      	92.6056        	91.9631        	93.737434      	93.247444      	93.561905      	93.90856       	93.00085       	92.79512       	93.610115      	94.94979       	92.368355      	92.93921       	93.858116      	91.83202       	94.70828       	93.157         	93.987915      	93.18554       	92.15965       	93.82308       	94.56466       	93.96253       	90.777084      	94.070786      	92.56951       	92.1797        	95.65962       	92.02266       	92.2017        	96.947014      	94.307335      	91.42034       	96.52206       	92.28924       	90.508224      	91.573074      	94.8586        	95.927605      	91.50622       	91.95731       	94.661575      	93.64195       	91.74787       	92.64408       	96.18111       	91.71905       	91.38079       	92.35807       	93.68177       	94.03909       	90.39505       	93.84744       	93.99787       	88.85819       	95.56105       	96.26969       	89.76329       	92.53233       	97.46591       	90.1667        	92.33887       	95.94865       	91.64467       	91.76069       	92.82629       	93.50689       	95.12996       	94.02632       	91.35672       	89.998184      	90.38455       	
93.54782       	93.292114      	90.8878        	91.94823       	96.678665      	93.84778       	91.424286      	94.50035       	94.74382       	91.6341        	91.81031       	96.892525      	92.80496       	88.88216       	94.68382       	97.227325      	91.61157       	90.41319       	95.41007       	93.77123       	91.33249       	93.9692        	95.5765        	93.84216       	90.432785      	95.83229       	96.954056      	90.92907       	91.34936       	95.93889       	94.87414       	92.15346       	94.33375       	97.15108       	94.4326        	89.93347       	92.662796      	94.73005       	95.2223        	92.85786       	93.39257       	94.43592       	91.615654      	95.70076       	96.21695       	90.49702       	96.33512       	97.10241       	90.93364       	94.4781        	97.554695      	92.23862       	93.67744       	94.740776      	93.529175      	97.18389       	93.05873       	91.162895      	97.380806      	91.912         	92.2422        	98.7375        	92.378334      	89.25431       	96.97215       	94.034874      	90.66004       	97.48543       	91.955986      	90.86309       	95.92583       	93.039444      	92.84172       	96.31959       	90.70973       	93.61503       	98.120155      	91.03917       	93.35015       	99.72215       	90.09065       	90.98079       	93.52928       	92.176155      	95.075874      	94.17252       	91.62964       	95.17667       	94.86712       	90.90024       	96.58617       	94.69044       	89.56996       	96.12064       	94.77109       	89.14981       	90.3425        	95.25545       	99.081474      	94.84647       	
94.98434       	91.764175      	92.339615      	95.035385      	90.0117        	91.37436       	96.188385      	92.57975       	91.39006       	92.65451       	90.709076      	95.32026       	91.71366       	91.27715       	93.84741       	93.777306      	89.196846      	95.30018       	96.84345       	88.13707       	93.03364       	95.49196       	90.57899       	93.764175      	93.00468       	92.46578       	94.3514        	93.45273       	91.296295      	97.6382        	91.37443       	89.147675      	93.690636      	93.00285       	92.58443       	94.57064       	93.1765        	91.749794      	94.25061       	95.05648       	91.3722        	95.06912       	92.69396       	94.02147       	92.82081       	93.46062       	96.49228       	93.903725      	92.12798       	92.75805       	93.66663       	95.496216      	92.41873       	93.82185       	95.56017       	92.517944      	91.57757       	95.63368       	95.88177       	91.09334       	95.69881       	94.23752       	93.56385       	95.04577       	92.765434      	93.56758       	93.4816        	92.63026       	95.18443       	95.50314       	89.90595       	95.56901       	95.4467        	91.96605       	94.68026       	97.170044      	92.03426       	90.94251       	95.67125       	96.005196      	91.25495       	92.68808       	95.769844      	94.194756      	92.910515      	95.219925      	96.12093       	94.56865       	91.095985      	92.70243       	95.91215       	94.231735      	93.36071       	95.515945      	94.95677       	91.6626        	93.63288       	97.61593       	98.3291        	98.039566      	
95.31506       	95.46033       	96.373955      	92.08366       	94.429924      	95.224495      	93.75792       	93.68042       	94.532036      	94.25598       	96.33574       	91.91922       	91.9718        	98.62048       	94.99489       	90.22115       	98.56062       	96.06236       	88.76979       	93.75333       	92.247574      	93.418144      	96.9653        	90.73109       	92.612625      	96.33971       	91.42995       	92.76158       	96.67404       	91.29355       	92.50923       	94.35556       	91.56799       	94.74942       	95.69502       	88.93535       	94.678185      	96.90422       	89.918655      	96.20368       	95.00026       	90.97043       	94.93568       	95.985214      	92.12577       	97.42561       	93.71321       	89.66866       	95.58558       	93.87029       	93.07445       	95.55493       	93.59933       	92.16157       	94.848145      	93.9936        	92.10527       	95.87732       	93.867355      	90.91859       	94.94519       	94.608154      	92.51049       	93.79623       	95.74322       	91.97795       	93.41153       	96.57384       	93.28034       	94.10328       	92.88207       	91.99735       	95.03205       	94.23014       	90.41779       	95.5742        	92.52723       	91.168175      	96.63854       	94.88343       	88.82047       	94.078125      	95.21603       	91.704414      	95.32997       	92.39698       	93.14169       	95.565094      	92.33556       	92.23587       	96.38026       	92.08153       	88.72972       	94.12862       	94.01925       	92.81326       	93.80496       	95.0899        	94.45661       	93.09362       	
92.07596       	95.99095       	90.351326      	94.05305       	95.59211       	89.45383       	93.548164      	97.616264      	89.45263       	90.894684      	97.28664       	92.15327       	91.28403       	95.012665      	89.8034        	94.084076      	92.81955       	91.6985        	96.3423        	94.22829       	87.58808       	94.923004      	93.104355      	90.05675       	96.37141       	93.53334       	90.55303       	93.984825      	93.54835       	94.0079        	93.32994       	92.5045        	94.71032       	91.85513       	90.85678       	97.10872       	94.259125      	89.25093       	95.284515      	95.281906      	92.23371       	93.63468       	94.81006       	93.31481       	92.10917       	94.35824       	94.8652        	95.41788       	90.96156       	91.7921        	96.68792       	93.83216       	90.817375      	95.497604      	96.38875       	89.97791       	91.74732       	94.19474       	95.008125      	94.5499        	92.5195        	93.70165       	93.469604      	93.15671       	95.52278       	93.79355       	92.07675       	94.40133       	93.31605       	92.65148       	93.728065      	94.49635       	92.99141       	93.28568       	94.107544      	96.20397       	93.84349       	92.53386       	93.954926      	92.92069       	95.56335       	91.755615      	93.87359       	94.37304       	91.05077       	93.22846       	96.40744       	92.86959       	90.73569       	94.21048       	92.93554       	91.180046      	95.33928       	93.05538       	94.895294      	95.16484       	91.853195      	92.393585      	94.95387       	95.246124      	
90.885345      	93.23051       	92.16183       	88.49338       	94.10877       	91.720665      	87.92193       	93.68914       	90.62215       	89.36633       	94.58571       	91.09441       	87.754585      	93.57579       	91.20721       	89.71113       	93.923134      	90.29534       	89.50858       	93.59169       	91.2786        	89.79245       	94.15262       	89.89791       	89.20936       	90.6014        	92.24449       	92.07975       	92.32055       	89.464615      	90.92005       	92.6116        	91.00861       	90.8941        	93.48336       	93.776764      	89.72164       	91.306625      	95.243095      	91.77703       	91.73398       	93.8085        	91.55048       	92.12873       	95.085785      	93.30892       	92.423546      	92.63642       	92.068115      	93.497314      	95.96657       	90.89384       	94.7507        	94.19756       	92.11815       	95.24247       	95.75012       	92.11537       	95.077484      	94.61134       	95.65771       	94.70539       	94.02279       	96.20303       	97.379715      	93.9414        	94.96306       	98.746635      	92.47464       	92.38338       	95.07012       	96.50244       	96.216095      	94.40707       	95.092964      	95.64054       	94.2895        	95.3493        	96.235275      	95.65723       	95.56239       	94.651405      	94.5006        	96.39448       	95.0764        	94.02835       	96.8512        	92.94349       	95.285286      	99.24478       	92.48075       	93.33214       	99.1578        	93.54569       	93.78071       	97.32347       	97.22328       	94.17908       	92.60407       	92.06032       	
93.92934       	89.91553       	93.69249       	94.10219       	88.126015      	90.1353        	92.53344       	90.329544      	93.21264       	89.85787       	88.94994       	93.16854       	90.64969       	89.91134       	91.4412        	93.35511       	89.29145       	90.72194       	90.10106       	92.19188       	93.060715      	88.110634      	91.758575      	91.44264       	89.073166      	93.30626       	91.67427       	87.79085       	91.65257       	92.74275       	89.51572       	92.43132       	94.146194      	88.79029       	91.91609       	91.285965      	91.817314      	92.422226      	89.81555       	90.1344        	93.94488       	93.08466       	88.86443       	95.01323       	92.137955      	88.64129       	94.01387       	93.512405      	91.20806       	93.13542       	91.17889       	92.45216       	95.941246      	91.30126       	91.69134       	95.24505       	90.92192       	91.04906       	98.262375      	90.73124       	88.37367       	96.48576       	91.162384      	91.86612       	92.520905      	90.46834       	92.583374      	95.896355      	88.95234       	93.71215       	96.15355       	86.01616       	89.62663       	93.144936      	89.30156       	93.34661       	95.09722       	89.88163       	91.10507       	93.503006      	90.8474        	92.44833       	92.385025      	89.08009       	93.04517       	91.39444       	90.58959       	92.74129       	92.895676      	90.58236       	92.166756      	92.58378       	92.03758       	94.92261       	92.719894      	90.76202       	93.09775       	95.29743       	95.69349       	95.04029       	
90.82068       	96.517166      	89.98263       	96.28154       	97.49584       	87.6497        	93.30547       	95.21554       	92.55877       	94.942856      	92.774254      	91.5018        	95.22881       	92.77851       	91.47364       	97.50353       	93.34952       	90.91356       	94.85185       	95.82682       	90.8363        	94.580025      	94.420525      	88.68987       	95.26995       	94.299644      	91.58505       	93.368256      	92.89941       	92.867195      	95.20119       	93.78728       	91.36764       	96.861725      	90.440056      	92.508896      	99.573326      	92.607346      	89.98702       	97.99135       	93.26271       	91.98283       	97.27213       	92.296844      	93.768394      	97.81311       	91.34033       	94.99479       	97.24056       	90.54145       	92.846504      	95.403435      	93.12645       	95.493034      	97.81648       	90.69824       	94.71931       	95.70074       	92.732956      	95.1894        	94.0571        	93.33705       	93.56832       	92.091934      	94.02089       	93.74399       	92.72599       	92.43749       	93.76967       	93.96712       	93.266205      	93.09035       	92.2518        	91.84411       	90.37198       	93.107376      	95.11739       	90.30165       	91.87849       	94.052605      	91.37078       	91.07474       	92.25802       	94.0088        	90.76271       	90.572914      	92.994354      	95.335815      	91.49163       	90.15374       	96.76183       	93.24649       	90.445274      	98.80877       	94.81196       	90.73515       	93.453766      	95.57907       	96.48882       	96.180595      	
93.82683       	89.47503       	93.95308       	96.71122       	89.53898       	91.35727       	96.15735       	90.55858       	92.24761       	94.511154      	90.469154      	92.45886       	92.710884      	90.8033        	95.89963       	92.880035      	88.88539       	94.98012       	93.12636       	90.63143       	94.53151       	93.89296       	91.621414      	93.166626      	94.57954       	93.23909       	94.572876      	92.788925      	92.457596      	96.66896       	94.01138       	91.98303       	98.14198       	92.78414       	91.55986       	93.51042       	92.98266       	96.50479       	96.263985      	90.61781       	94.76294       	97.104004      	93.877365      	94.72612       	96.60544       	96.48699       	94.69768       	94.58035       	98.115005      	98.45231       	94.851105      	96.33849       	99.28282       	96.52438       	98.56588       	96.54736       	97.179726      	95.34657       	93.62219       	97.402756      	98.622765      	91.444374      	95.671005      	98.0915        	93.83471       	94.35233       	97.608116      	94.29034       	93.34233       	97.77408       	95.927925      	97.23091       	95.561165      	94.128914      	97.736855      	99.56266       	92.58825       	97.933105      	102.42347      	92.23242       	95.00733       	98.64505       	98.13281       	99.06526       	96.663536      	96.73125       	99.23465       	100.61639      	95.96757       	91.51379       	90.907524      	90.20305       	93.254845      	93.534294      	89.02164       	91.46695       	90.88021       	88.796555      	88.2232        	89.14412       	
90.57345       	91.19614       	91.66759       	90.31202       	90.52626       	92.057686      	94.22426       	87.76838       	89.98992       	93.4669        	89.319145      	91.88793       	93.80821       	90.27868       	89.176994      	92.91713       	90.563095      	89.88102       	94.23447       	89.25502       	92.915596      	90.918625      	89.25672       	95.99545       	92.74985       	87.92381       	94.84965       	94.87589       	88.32873       	96.18461       	95.10741       	93.82722       	96.77636       	95.34897       	97.6438        	95.80391       	90.27928       	88.84886       	97.40285       	91.79066       	85.10294       	95.82645       	90.860214      	85.29281       	90.17237       	94.74608       	91.57822       	87.68273       	88.90706       	90.93037       	87.672485      	85.07181       	88.17412       	90.84051       	82.47498       	83.69755       	87.13537       	91.1058        	90.48963       	91.824554      	95.5564        	91.51751       	90.60876       	94.4594        	93.54753       	89.37557       	91.75162       	94.48226       	93.031685      	90.70319       	92.82236       	94.50459       	92.31157       	91.18002       	96.126305      	93.813545      	88.92628       	95.231026      	97.85861       	92.03737       	92.05114       	96.74512       	95.20813       	92.89983       	96.80488       	97.470024      	94.937416      	97.067245      	94.66076       	90.41692       	86.76085       	86.54301       	89.99463       	91.75887       	87.586044      	86.819756      	91.30762       	94.729614      	93.63006       	89.94892       	
97.52941       	96.165855      	98.87611       	96.03446       	95.13923       	96.28568       	94.9131        	98.51098       	95.55303       	94.692375      	97.91312       	95.541885      	93.856674      	100.372406     	95.630295      	92.42992       	98.73959       	97.23383       	94.98402       	97.94435       	98.25261       	95.82862       	99.08276       	97.998665      	99.41403       	102.41369      	90.95677       	89.78284       	90.69813       	90.647545      	92.12214       	93.82401       	87.93213       	91.62639       	94.636604      	87.82995       	91.46895       	92.84344       	90.680016      	88.96993       	90.60006       	91.002075      	92.25872       	87.66928       	87.08085       	93.30331       	87.97409       	87.011284      	91.858116      	88.83074       	84.772354      	88.62497       	90.192375      	87.160736      	86.95257       	85.30401       	85.50399       	92.664185      	92.2612        	96.17876       	96.77202       	90.30091       	94.151825      	100.45667      	93.561615      	90.07115       	98.419014      	94.34835       	92.23685       	97.65412       	93.712326      	94.9477        	97.59041       	92.88964       	95.92734       	98.240616      	90.60478       	93.318375      	96.17274       	92.95413       	97.05705       	96.37393       	94.5475        	96.215935      	96.653595      	97.73737       	97.43171       	98.25455       	92.46948       	87.74          	88.05636       	89.07947       	91.712456      	86.28194       	89.80763       	91.71744       	89.772095      	88.47375       	89.011314      	90.53068       	
95.151474      	93.3451        	97.73292       	91.10156       	94.28649       	96.390976      	93.73914       	92.76762       	94.83868       	94.97399       	97.37698       	93.986275      	93.39458       	96.54073       	95.89852       	93.98284       	97.37341       	98.15407       	95.101234      	95.928795      	98.17819       	97.12467       	97.44824       	95.95505       	98.407684      	99.427086      	91.92785       	90.17799       	89.141426      	92.45851       	90.63314       	88.888016      	90.31068       	94.40133       	91.12935       	87.81573       	92.42733       	90.90866       	90.55326       	94.3742        	88.559586      	91.02165       	91.74247       	86.40128       	91.571526      	94.3407        	84.20147       	89.36795       	93.78474       	86.02306       	89.770386      	92.429436      	86.290565      	88.684586      	89.41922       	85.48242       	90.14716       	89.12377       	91.226555      	98.531         	96.96674       	90.095375      	96.18155       	99.017426      	90.59465       	93.73568       	96.37968       	95.595665      	96.95068       	93.278244      	93.14328       	97.95063       	94.42441       	93.05904       	99.44734       	94.431404      	91.73458       	99.45307       	96.41085       	92.71831       	97.95995       	96.569244      	94.912704      	96.7191        	95.51603       	97.6512        	99.99906       	93.626724      	94.902824      	92.85365       	86.83423       	88.966644      	92.69423       	89.60361       	88.11608       	90.26888       	88.79005       	88.96671       	91.14141       	93.12773       	
97.713585      	100.40148      	98.965775      	99.33483       	97.458084      	95.94169       	99.10615       	96.6936        	96.4336        	97.42846       	98.039024      	93.74268       	98.59871       	100.49743      	93.43574       	95.510704      	99.24159       	95.07069       	96.73402       	98.25903       	94.08296       	99.73215       	97.04778       	96.381805      	101.970215     	99.2921        	91.92205       	91.78634       	92.47004       	89.17794       	90.54874       	92.91686       	89.97233       	90.314445      	92.30948       	91.98698       	92.40572       	90.61362       	88.603195      	94.858315      	91.028656      	86.02408       	93.73953       	92.31937       	84.515785      	94.40702       	92.524345      	85.76908       	90.14486       	90.7819        	90.62858       	88.86382       	86.78878       	89.78516       	91.5919        	84.33739       	84.38578       	94.9243        	91.61857       	90.66594       	94.24947       	94.54018       	95.785774      	93.56947       	92.54244       	94.780396      	93.41525       	93.71041       	95.27184       	93.05174       	91.13608       	94.85741       	94.05767       	91.98473       	94.21612       	93.608475      	93.30397       	93.6284        	95.33039       	95.536224      	95.24863       	94.18318       	93.04384       	95.90278       	97.44764       	94.63551       	96.01881       	100.10487      	92.56172       	88.20651       	91.03321       	91.27636       	88.2718        	89.410225      	91.63284       	92.062096      	89.408806      	87.66956       	88.14969       	89.08349       	
98.2614        	98.73542       	102.36279      	99.4687        	98.17683       	102.00306      	102.35559      	101.491325     	102.528305     	104.69161      	105.87302      	103.67675      	101.22513      	102.0877       	107.49393      	105.265945     	104.67097      	106.81501      	102.11439      	105.09472      	111.34554      	101.69838      	103.192        	111.019356     	101.60231      	104.18986      	109.24309      	94.17193       	94.16097       	100.95578      	95.01156       	95.92606       	97.09681       	91.14963       	97.220146      	99.584404      	91.059         	97.24337       	99.10643       	91.219604      	94.6765        	94.782394      	95.669395      	98.854294      	93.263214      	91.81522       	97.030106      	94.392265      	92.49549       	95.89987       	93.90773       	92.77007       	92.318344      	94.649994      	93.50224       	92.05368       	90.00765       	91.93148       	102.92729      	101.10036      	98.58745       	101.54599      	99.695816      	97.5125        	102.816536     	101.85466      	97.1527        	97.86598       	104.32572      	100.47133      	98.33854       	101.78858      	101.043015     	99.25176       	102.43187      	101.64488      	99.38733       	103.226204     	99.72441       	98.372574      	104.458694     	103.03057      	101.13965      	102.77137      	100.268364     	103.70695      	109.44697      	102.31218      	97.380585      	100.472824     	90.09036       	93.52661       	101.65003      	96.067665      	91.214714      	100.35816      	102.08466      	97.884834      	95.24185       	96.12802       	
100.21782      	98.239136      	100.31095      	102.39993      	97.965195      	102.78987      	107.08825      	97.7282        	100.56142      	109.3647       	98.09657       	101.129845     	106.65124      	101.24565      	97.46329       	104.18179      	102.196785     	100.5708       	100.40917      	97.16878       	100.13338      	102.42042      	94.788246      	98.8829        	103.81772      	92.232956      	91.54705       	90.72912       	84.43249       	88.5171        	89.09497       	84.03212       	85.23351       	87.42839       	85.53494       	85.58748       	85.278244      	83.145065      	86.40221       	85.60503       	82.94447       	87.48762       	86.52747       	80.6868        	85.746666      	91.018684      	82.01302       	84.27534       	90.520134      	82.63265       	86.062294      	88.12191       	86.70999       	87.13071       	87.98759       	86.24645       	87.85393       	89.13452       	90.88781       	97.48738       	98.53525       	90.391075      	96.602615      	98.09143       	93.37316       	92.61682       	95.375885      	97.01721       	97.43609       	91.21574       	93.20485       	98.536575      	92.26842       	92.717354      	97.66973       	94.78686       	90.4353        	95.468636      	97.10898       	94.712875      	92.731285      	93.8313        	95.966545      	95.09056       	92.10572       	97.31646       	98.06136       	91.76448       	93.11574       	92.27618       	85.37963       	83.91431       	90.411095      	88.24216       	86.78838       	87.233505      	87.62509       	87.54617       	88.49836       	87.55725       	
91.097916      	92.91452       	94.45089       	89.9367        	92.7878        	93.88677       	91.266464      	92.0982        	94.45875       	93.821         	94.10782       	91.5098        	92.48585       	96.920166      	94.43035       	91.11939       	96.45611       	97.76878       	90.41872       	95.03646       	95.176994      	98.32152       	97.656334      	93.77483       	96.87054       	100.06849      	91.992935      	88.27754       	92.372604      	89.69904       	90.96534       	88.70476       	93.72567       	91.771286      	87.531685      	92.50064       	91.378265      	89.02455       	93.12055       	92.72677       	88.72698       	91.385994      	89.327225      	89.00666       	95.44946       	87.9178        	88.28154       	94.43627       	88.660995      	86.94538       	93.47393       	89.36229       	85.23849       	91.14          	87.20996       	88.00839       	89.348335      	84.46924       	95.726425      	96.71205       	89.32679       	96.43453       	96.11864       	87.99065       	93.75069       	97.86532       	90.00924       	93.48174       	96.55266       	90.92738       	92.537964      	97.81053       	92.17867       	94.24857       	93.89532       	90.375534      	94.04628       	94.13689       	91.24972       	95.36766       	94.853424      	88.27851       	97.06829       	97.42748       	87.29601       	98.02467       	97.9236        	91.79249       	90.60867       	89.10635       	86.0011        	86.479904      	87.19273       	84.28238       	89.86565       	90.15145       	84.2664        	82.065506      	85.21022       	89.23396       	
88.211464      	91.99072       	87.51253       	99.12577       	93.32396       	87.289635      	102.017105     	92.80626       	87.95215       	98.04236       	91.85351       	95.389496      	100.49754      	93.40454       	96.792534      	100.69603      	95.76071       	100.40348      	102.37299      	96.32861       	102.19012      	101.85582      	97.299965      	104.50497      	101.46014      	100.17888      	101.97653      	92.88948       	92.41387       	96.5354        	93.0722        	90.60513       	94.469765      	92.65196       	90.53934       	95.04086       	91.347916      	90.3978        	92.748795      	91.25159       	91.27026       	91.66198       	90.85437       	88.66687       	92.18119       	91.39301       	88.445114      	93.19915       	89.62557       	86.557175      	88.655235      	89.56032       	90.98588       	88.91364       	85.93664       	86.4696        	87.96757       	88.444786      	92.82178       	96.76424       	97.53311       	93.249435      	92.53622       	96.83932       	96.717545      	91.62878       	94.83949       	95.39821       	92.5564        	95.297165      	96.877396      	93.71312       	94.195595      	95.44032       	94.07894       	97.249275      	94.76379       	95.97302       	96.7578        	94.07915       	95.71536       	99.8901        	95.12435       	92.37492       	99.13501       	98.8282        	96.1695        	99.632195      	93.48483       	88.97423       	90.10716       	90.50054       	92.33178       	92.919365      	87.29972       	89.70936       	95.32515       	96.70796       	94.98783       	91.11644       	
94.47362       	93.025116      	96.535835      	91.39455       	92.84465       	95.1108        	90.578384      	95.09034       	95.82933       	91.32223       	93.45761       	95.24259       	92.179         	96.3603        	95.91326       	90.83212       	99.06299       	94.222786      	92.472626      	100.27432      	96.634155      	91.87943       	98.70429       	98.898926      	95.99228       	100.83532      	94.40642       	89.39833       	91.40845       	89.60975       	92.48223       	94.90343       	87.62733       	90.728325      	93.39641       	89.92237       	91.80599       	93.87923       	91.74882       	90.70238       	91.500114      	92.4672        	94.51453       	90.54358       	93.45672       	93.91851       	87.68434       	92.36439       	95.36439       	89.199814      	90.94239       	93.64192       	90.17139       	90.27511       	91.505775      	88.46542       	89.453094      	90.276505      	97.38714       	100.69768      	96.27867       	93.80822       	98.12828       	98.78587       	95.105415      	97.28401       	99.01777       	95.03468       	95.36036       	98.061485      	96.283394      	96.23473       	96.069954      	94.83341       	99.096886      	97.169556      	93.19052       	99.84154       	96.6505        	91.97061       	95.823105      	98.169205      	96.9152        	97.40584       	97.33622       	96.44552       	100.16731      	99.350044      	92.4933        	91.64162       	90.27408       	87.822586      	90.711235      	93.21929       	89.739746      	89.7693        	91.448456      	91.265594      	90.0533        	89.40004       	
91.50709       	91.47598       	93.31056       	94.39769       	89.41788       	93.56855       	97.634926      	89.53388       	91.38309       	98.955826      	88.26663       	91.806526      	94.73458       	93.3359        	96.97478       	94.83697       	91.40264       	97.28584       	97.20435       	92.219925      	97.8603        	98.22002       	93.35847       	97.22677       	99.71166       	99.22928       	96.28413       	90.64293       	90.95035       	90.17581       	92.8099        	92.78132       	94.192184      	91.51087       	91.06231       	92.74064       	93.77072       	91.66318       	91.11382       	94.99157       	91.598076      	91.54501       	92.40428       	93.77969       	92.15433       	92.08489       	92.30281       	90.75719       	91.81913       	92.41312       	91.717865      	89.98173       	91.845985      	90.15163       	89.294174      	90.78492       	87.221756      	92.144646      	95.28604       	95.22173       	98.188515      	97.48553       	93.54199       	96.994354      	96.58374       	91.59638       	98.273895      	95.65247       	92.94984       	96.11047       	95.18961       	93.87755       	97.63911       	95.65833       	93.667076      	97.78134       	94.06314       	93.914536      	99.93837       	93.56441       	94.10179       	99.549576      	95.116455      	94.69858       	101.29329      	95.2144        	94.42296       	102.301346     	95.83237       	87.84575       	91.228775      	89.56832       	89.41409       	94.120125      	89.65762       	88.34738       	94.40528       	95.29968       	91.638435      	88.32292       	
97.00971       	92.30669       	94.635895      	96.73068       	93.390884      	94.72712       	97.293465      	91.88538       	97.13151       	96.12609       	91.87426       	99.4143        	96.76584       	89.62215       	98.76905       	98.22006       	93.02922       	97.558525      	98.15022       	94.33802       	97.13358       	96.183395      	96.46293       	100.10892      	96.25971       	95.95859       	100.84525      	90.98344       	85.66614       	95.52894       	93.9194        	85.63808       	91.44861       	91.87141       	91.60688       	91.89437       	91.048256      	91.38539       	91.64049       	90.241875      	92.035645      	93.9571        	89.1086        	90.652504      	93.778206      	89.74461       	90.4067        	91.96485       	92.31408       	89.468056      	88.96944       	91.36625       	92.472946      	88.30095       	87.54796       	91.11528       	87.76525       	87.95593       	98.934395      	97.186646      	94.22369       	95.58428       	96.95523       	96.01395       	94.74565       	94.32964       	96.448685      	93.983894      	93.75404       	97.199394      	95.55094       	92.931854      	94.78669       	96.32773       	95.65871       	94.40795       	94.694595      	98.10865       	93.79106       	93.13028       	93.3079        	97.616875      	96.958824      	94.3442        	96.59053       	96.87025       	96.75847       	101.32155      	92.03995       	87.20869       	91.41452       	87.38319       	89.12863       	91.99142       	88.49682       	87.90243       	91.711334      	91.801315      	89.79091       	89.02847       	
92.51001       	96.23434       	92.74097       	96.624825      	95.5904        	93.58874       	95.750595      	95.015594      	94.99863       	96.37651       	96.111984      	93.859634      	94.477585      	96.82901       	95.75089       	96.02889       	96.027794      	96.52095       	96.54518       	96.68503       	97.48418       	96.823296      	98.20793       	97.07193       	98.209595      	101.202286     	98.84636       	90.47881       	91.82956       	89.79469       	91.29872       	94.893715      	90.06153       	91.625336      	92.48125       	90.3409        	91.77047       	93.53483       	91.343544      	91.4119        	92.4327        	89.41802       	94.11378       	93.3404        	88.0472        	93.10426       	93.61235       	88.91304       	92.63543       	92.474686      	87.44218       	91.94847       	92.37177       	88.494026      	90.90239       	87.63825       	87.74206       	93.68118       	94.688545      	94.48943       	101.53649      	94.259834      	89.932304      	95.7428        	98.39636       	95.01326       	96.353386      	94.41276       	94.13272       	96.58732       	95.08482       	95.2496        	97.885124      	95.3769        	92.33276       	99.30982       	96.745575      	90.92111       	99.52127       	97.021454      	92.01308       	96.31592       	99.26786       	96.08175       	96.285515      	97.014534      	96.84948       	101.62858      	97.72637       	88.0883        	93.390305      	91.05016       	86.98718       	91.74307       	91.58211       	89.92608       	92.21684       	93.297554      	92.85035       	91.42802       	
90.297134      	93.65747       	89.1291        	95.74997       	93.64212       	94.266815      	95.67151       	90.917046      	94.757065      	100.16149      	90.46471       	92.68067       	102.16507      	92.14826       	89.2106        	96.341705      	93.765274      	96.21908       	98.63362       	92.54317       	96.562294      	97.84876       	95.01462       	98.85784       	100.757675     	97.63854       	98.13844       	91.81218       	89.81376       	94.37879       	92.361664      	90.35977       	94.71259       	91.78784       	91.03458       	94.90532       	91.38341       	89.93233       	94.83766       	91.807915      	91.008804      	95.92835       	90.45881       	89.56817       	95.3765        	91.91147       	89.59159       	95.32376       	90.07727       	90.57708       	94.93837       	89.335396      	90.54013       	93.978         	88.22233       	86.14648       	89.40024       	91.0331        	94.00888       	98.78993       	94.50683       	93.867355      	98.43111       	93.94577       	95.27448       	97.604546      	94.635666      	93.7647        	97.21097       	94.18502       	95.13892       	98.266426      	92.12898       	94.44673       	97.89256       	94.37455       	96.10622       	96.946304      	94.24864       	96.74742       	97.6173        	94.202675      	97.01196       	100.06972      	91.937225      	99.61474       	100.69352      	96.779945      	95.57553       	92.07641       	86.68128       	90.31218       	92.9589        	90.25322       	92.195595      	92.72513       	89.953926      	90.864         	91.8379        	94.05226       	
95.89825       	93.270065      	93.20235       	96.194176      	91.499115      	93.732185      	97.85674       	93.645546      	91.08399       	97.64014       	96.24798       	90.91011       	95.8981        	95.53177       	93.19475       	92.291046      	97.72651       	96.85306       	94.321175      	93.9417        	97.40439       	97.70524       	95.99525       	96.71469       	98.69917       	100.99149      	93.76246       	87.3027        	93.5008        	91.09254       	89.201775      	92.20759       	91.83273       	89.39351       	93.99413       	92.39818       	88.97629       	93.93598       	90.31995       	89.69268       	94.685684      	90.29373       	88.034546      	94.931595      	88.17988       	90.910194      	95.73027       	86.76391       	87.64285       	95.191765      	88.41447       	88.61583       	95.87743       	85.39404       	86.4775        	92.47232       	83.75014       	88.91308       	97.80687       	91.876434      	97.66407       	101.01923      	89.12846       	97.5363        	102.07934      	86.41649       	93.815605      	98.38745       	91.17155       	95.7686        	97.32045       	91.71884       	95.033554      	95.982185      	92.227715      	98.086006      	96.23136       	90.32236       	97.56542       	97.20101       	91.99167       	97.149216      	99.082466      	91.72151       	96.51524       	100.80573      	95.35746       	98.76838       	97.93016       	86.08847       	89.82825       	91.92431       	88.638725      	92.26744       	92.748726      	87.04609       	88.11775       	93.35988       	95.91288       	96.41146       	
91.60611       	98.90401       	89.788925      	91.88744       	97.18163       	92.61837       	92.15199       	98.916176      	93.61361       	90.86247       	97.34127       	95.35603       	93.45848       	96.62316       	95.68851       	94.02872       	94.844795      	96.47503       	96.84061       	96.11377       	92.75966       	95.209854      	98.673416      	95.221245      	96.32834       	101.22987      	97.90495       	86.38081       	91.08188       	91.70407       	89.70676       	90.15561       	90.99632       	89.40482       	92.552444      	91.60383       	89.71269       	93.15565       	90.05277       	89.39302       	93.64314       	89.288445      	89.248276      	91.97253       	89.6532        	89.367676      	94.401215      	88.68665       	88.54558       	92.02231       	88.24706       	90.81124       	89.449554      	86.26868       	89.30455       	91.081314      	85.10988       	90.138016      	100.37951      	92.29433       	94.329636      	95.483406      	94.405685      	97.44304       	94.82349       	93.00091       	96.62687       	94.06135       	92.40377       	97.85727       	94.3013        	93.45415       	98.32089       	94.14708       	94.86966       	97.95406       	95.43228       	94.56857       	96.75731       	94.51279       	96.96448       	98.60371       	92.8761        	96.292076      	100.85466      	94.96038       	98.48759       	101.89814      	94.25247       	90.16257       	91.93869       	90.03328       	93.00947       	93.49815       	89.700966      	91.55221       	96.204384      	96.46135       	91.94046       	90.497345      	
94.03557       	94.45932       	92.25804       	94.88871       	95.46109       	92.433525      	94.39224       	94.14769       	93.60627       	96.11742       	95.14458       	92.49296       	96.68614       	94.10723       	93.58147       	99.08826       	94.49155       	92.10749       	98.61187       	94.94903       	95.50672       	98.26269       	95.499466      	97.24442       	100.118484     	96.35947       	99.86345       	94.14258       	85.11574       	89.75508       	91.076294      	89.488754      	91.99972       	91.20973       	89.813774      	92.9074        	90.64852       	90.17514       	95.68764       	91.500496      	88.410065      	94.53081       	91.06188       	90.42314       	94.70581       	91.07194       	90.855804      	94.58333       	89.07451       	91.69598       	96.41838       	86.28057       	90.81264       	93.79835       	87.989655      	91.501274      	91.70015       	88.07911       	97.89493       	99.704185      	93.79325       	102.22906      	98.70609       	92.96071       	100.51109      	96.74003       	94.85135       	101.12727      	96.808235      	95.352776      	101.95602      	94.53399       	97.52314       	103.16073      	93.79516       	95.54404       	102.54379      	96.58292       	97.85901       	101.503624     	96.18857       	97.55895       	101.948555     	97.739655      	100.63513      	104.02516      	97.042145      	102.026405     	101.65805      	92.00811       	96.465096      	94.41318       	88.02095       	96.613815      	97.765945      	91.32223       	90.82419       	94.88948       	97.74075       	95.860016      	
94.777466      	91.58194       	93.41089       	95.65589       	92.06236       	95.955986      	96.63508       	91.801056      	94.471664      	94.537445      	92.986465      	95.44466       	94.62411       	92.493706      	96.73031       	93.527985      	93.6482        	98.95863       	94.936874      	91.50978       	97.7764        	96.68141       	94.941315      	97.08773       	98.010284      	97.54033       	96.61504       	90.139534      	90.907486      	90.47501       	88.49288       	90.8702        	93.49742       	90.562836      	89.90821       	95.32873       	90.64117       	87.31866       	89.18237       	91.31116       	92.94577       	89.2817        	89.04745       	91.64014       	89.54723       	90.10767       	91.73426       	90.56795       	89.27225       	91.99793       	89.35908       	90.01513       	90.100655      	88.20623       	89.709885      	87.45836       	85.35939       	89.46319       	95.87549       	92.58339       	95.65951       	95.326004      	93.7503        	96.177605      	93.42552       	93.73572       	96.589264      	93.304886      	94.46921       	97.77717       	92.47151       	92.97806       	93.005775      	92.687546      	96.17904       	95.646484      	93.174164      	95.04732       	97.17557       	93.08929       	98.22213       	96.87828       	94.622604      	96.73953       	95.7362        	96.72615       	99.081406      	96.62064       	95.11315       	91.03741       	90.1194        	87.5135        	92.58538       	89.9466        	89.344284      	90.93311       	92.05944       	90.50992       	91.109055      	90.7503        	
94.11349       	97.190544      	92.34814       	92.60156       	94.45135       	96.018555      	94.527985      	94.14931       	96.85383       	94.5664        	92.51051       	99.0414        	94.313         	92.57142       	98.26721       	96.471695      	95.414825      	96.4066        	98.49524       	95.125         	95.91357       	96.84508       	99.66842       	98.887985      	94.34347       	99.90569       	100.875114     	88.15739       	89.862465      	93.98854       	90.77111       	88.93253       	93.2369        	93.624985      	92.64941       	90.814575      	92.53841       	93.8295        	92.95756       	89.71369       	95.44084       	92.06914       	88.14942       	95.45236       	94.80146       	88.00221       	90.84355       	93.118484      	90.83753       	90.879715      	91.8174        	89.91676       	93.785446      	89.44245       	88.73947       	94.693436      	87.630875      	83.55348       	94.631584      	97.56954       	94.88758       	96.4131        	97.1576        	95.23876       	93.807785      	96.70312       	97.8549        	94.319176      	95.574234      	95.73542       	95.03234       	96.95157       	94.68074       	95.7588        	96.64772       	94.40449       	94.21753       	98.82972       	94.99508       	92.8826        	98.62814       	95.50386       	94.75508       	98.493324      	96.29145       	96.34706       	98.98316       	97.21092       	97.75014       	94.27714       	86.38233       	89.4996        	94.61766       	88.86162       	88.47276       	93.80174       	91.59923       	88.47236       	87.72975       	88.30567       	
95.75685       	97.42592       	94.377846      	94.96805       	95.61662       	94.04292       	96.00753       	96.452896      	94.14202       	93.90343       	97.50009       	94.3154        	93.70813       	98.79294       	94.65039       	95.16904       	94.29095       	96.88907       	98.9601        	95.300156      	94.19302       	98.76952       	97.21644       	95.06271       	102.33834      	97.51176       	98.20537       	92.40319       	90.41248       	92.65913       	92.52735       	89.52067       	92.23133       	93.848526      	89.930984      	92.490395      	95.180664      	89.00627       	91.037834      	94.17203       	90.51409       	92.30416       	91.72548       	89.44937       	92.7373        	94.721         	87.65624       	92.8983        	94.50932       	87.74598       	88.01836       	91.48976       	92.637054      	89.28437       	88.47271       	87.01893       	86.935455      	89.870026      	91.6953        	95.03968       	99.09886       	93.91151       	92.16204       	99.06788       	94.82121       	91.42509       	95.46947       	96.23469       	94.51306       	94.677216      	93.82373       	95.6089        	93.54241       	93.54961       	95.623695      	95.34162       	91.051834      	94.59992       	98.92711       	93.92925       	93.30819       	98.10355       	95.31621       	94.95952       	97.07307       	98.10197       	95.67287       	100.7415       	99.793365      	90.56275       	89.607124      	90.16216       	91.27168       	94.353645      	91.794174      	89.02556       	93.04202       	95.036446      	96.48691       	93.24651       	
91.15344       	98.57392       	93.46579       	91.80333       	94.20018       	92.684906      	96.49079       	96.08115       	90.35361       	95.53767       	96.41115       	92.865204      	94.2172        	96.89513       	93.570305      	94.375854      	96.19856       	95.986084      	96.691284      	94.03407       	93.77433       	96.57497       	95.04434       	95.24106       	98.8391        	99.42122       	94.8477        	88.17772       	91.72425       	90.90274       	89.114204      	93.19352       	90.21563       	88.693184      	94.48815       	92.095695      	89.035126      	92.23402       	92.3189        	91.27466       	92.35098       	91.21826       	90.82164       	92.341255      	89.15707       	91.99645       	92.97031       	87.94947       	89.950035      	92.62434       	91.76363       	88.715866      	91.22452       	88.628914      	90.268196      	90.6598        	86.87947       	90.447014      	94.5215        	93.5089        	93.96895       	96.7035        	95.77984       	94.92315       	96.52263       	94.06303       	95.10576       	96.91171       	92.74063       	95.79198       	97.204765      	91.51102       	94.57099       	98.65624       	94.19762       	93.49442       	96.616425      	93.15744       	94.39871       	99.65641       	93.34453       	95.49027       	98.76469       	93.37408       	97.3483        	99.35336       	95.14592       	98.3888        	99.746284      	87.67022       	91.396255      	92.02234       	86.5508        	91.36931       	92.99196       	90.0143        	91.898964      	94.46025       	93.3754        	93.97363       	
85.295906      	97.86508       	88.891685      	94.95287       	98.35885       	88.46833       	93.65202       	97.40888       	89.60088       	94.74499       	97.89472       	87.7106        	95.62321       	96.36019       	88.826706      	99.32555       	97.92874       	88.62394       	99.3242        	98.44433       	91.62406       	99.03006       	99.4484        	91.60841       	98.984055      	100.35454      	94.108025      	93.536575      	89.464355      	86.2103        	94.61665       	90.77424       	87.33359       	95.80688       	91.56564       	85.81448       	93.170296      	89.056465      	89.80296       	94.76726       	88.61671       	88.53027       	93.4427        	89.71805       	87.621216      	94.92194       	86.22053       	89.079315      	92.41701       	86.850235      	90.53483       	92.25941       	85.76891       	88.18453       	91.161835      	87.06812       	84.62524       	90.592094      	89.58684       	91.97411       	97.825836      	94.00289       	93.477615      	96.009125      	91.81469       	92.74153       	98.74653       	90.41075       	94.22081       	100.23863      	89.80754       	90.446014      	97.642876      	93.90207       	93.24239       	96.363045      	90.04069       	94.30017       	98.97193       	89.87568       	97.04738       	98.692955      	92.244644      	94.11813       	99.410995      	94.456894      	97.73019       	101.91106      	93.976524      	89.10456       	91.432175      	86.21242       	91.08855       	91.99866       	88.121         	90.209564      	92.19704       	91.440414      	88.56543       	88.56989       	
93.16614       	98.90873       	93.0374        	93.88854       	100.22157      	92.33365       	93.287964      	98.409134      	93.25561       	95.76745       	98.84013       	91.29435       	97.144295      	98.054474      	92.063675      	98.58131       	98.2817        	92.385605      	96.30684       	99.72081       	94.306526      	97.74305       	99.48039       	94.58934       	98.441086      	99.77799       	95.84252       	92.033005      	90.31959       	88.387215      	94.004875      	93.616615      	88.14049       	94.82524       	94.20914       	89.11723       	90.65551       	92.16838       	92.13921       	94.71915       	89.98365       	90.37169       	93.64423       	89.87695       	91.52347       	93.29691       	90.01632       	89.309685      	92.89727       	90.61972       	89.20692       	93.88021       	87.284424      	89.4425        	90.05839       	86.95057       	89.266594      	90.622955      	91.48432       	96.46049       	98.6919        	93.50249       	94.52467       	96.12646       	93.44028       	92.30549       	96.70192       	94.31971       	96.02999       	94.74808       	91.573074      	98.70616       	95.12509       	91.515816      	95.98567       	96.98453       	91.79866       	96.90588       	99.73783       	92.27547       	94.810684      	97.60515       	96.26342       	98.51488       	94.07671       	96.25487       	102.75709      	97.231705      	93.77989       	96.562         	90.94205       	83.69603       	92.170006      	91.131424      	91.12486       	92.664955      	91.69926       	89.82045       	90.216064      	90.6965        	
92.184235      	98.005875      	93.51574       	91.24015       	95.73811       	94.551994      	92.4123        	95.963104      	94.24426       	90.881966      	97.188385      	94.05915       	93.52856       	97.58192       	93.55757       	92.77685       	100.89078      	93.55856       	93.74993       	99.737045      	95.64011       	95.28238       	101.416916     	94.691025      	94.88358       	101.782455     	95.94202       	89.89241       	94.239914      	84.937744      	92.29318       	97.33595       	86.03505       	92.09789       	99.89462       	86.456535      	90.16142       	92.49844       	89.99247       	96.3159        	91.208984      	88.71791       	96.229904      	89.12724       	87.6524        	95.944405      	90.48229       	87.198654      	93.2218        	90.99745       	89.85323       	92.32329       	88.16346       	90.93891       	89.920845      	87.04986       	91.31539       	90.09734       	87.16869       	98.14761       	100.806694     	94.29762       	95.20166       	100.222916     	95.98707       	93.69201       	98.82773       	97.375015      	95.48702       	95.28248       	96.3456        	96.95698       	96.79876       	92.67672       	97.742546      	99.06451       	91.06384       	94.29862       	99.22997       	95.177826      	94.15584       	98.014854      	95.581055      	94.948364      	98.58686       	96.640434      	97.57873       	99.544426      	95.19805       	89.78297       	91.8802        	88.929405      	89.924164      	92.372795      	87.32358       	88.70242       	96.03517       	96.3687        	91.77295       	88.76407       	
101.469154     	92.72261       	99.864044      	96.734795      	96.19168       	100.16686      	95.815926      	96.27898       	100.084175     	95.24256       	96.24231       	101.308975     	94.033646      	95.60181       	99.84293       	96.09904       	97.06137       	99.50187       	96.78212       	96.24625       	98.33559       	99.627655      	100.03959      	99.68258       	98.5024        	101.77221      	101.69889      	90.69594       	93.17294       	95.60951       	89.55435       	91.234184      	92.45989       	91.68607       	95.49208       	90.99913       	89.67872       	93.33841       	93.0656        	90.784874      	92.06082       	94.640015      	90.43811       	91.45222       	90.99007       	94.619         	92.52323       	88.176704      	92.258865      	93.473595      	89.789665      	88.64571       	93.62211       	88.77479       	86.0526        	90.57572       	89.67845       	88.598755      	92.80226       	95.75903       	98.65412       	94.755196      	94.15654       	96.223755      	96.477325      	92.41163       	96.35807       	100.29623      	92.82154       	92.725624      	98.14472       	95.62918       	95.523544      	94.21049       	96.910515      	96.9065        	94.94966       	94.44076       	100.66684      	94.92753       	92.18286       	95.64697       	97.29863       	97.719315      	97.14721       	98.539566      	98.555595      	97.32746       	99.25664       	91.856964      	88.92875       	88.90612       	93.2107        	91.72691       	88.58093       	90.922966      	92.85259       	91.65722       	91.86061       	90.910736      	
91.341034      	98.61023       	96.33175       	95.11779       	97.08424       	95.146034      	94.76949       	97.48278       	96.8706        	95.66581       	97.86016       	96.5299        	96.31397       	99.53838       	96.02387       	97.886284      	98.55341       	94.206696      	100.07213      	101.26835      	93.595505      	98.71087       	100.12569      	96.134514      	100.246826     	100.921104     	97.55634       	95.541245      	89.99095       	90.10493       	96.893715      	91.798355      	88.71095       	97.018974      	93.326294      	90.63492       	94.86146       	93.742676      	90.84205       	94.02766       	94.33133       	92.45647       	94.663956      	90.8929        	91.68568       	97.52536       	91.268486      	88.60021       	99.608894      	90.89879       	86.929306      	93.20596       	91.673256      	91.96717       	93.0855        	87.40941       	88.943886      	93.07124       	94.02811       	97.122505      	100.859245     	95.50159       	93.74431       	99.3829        	97.163895      	95.91627       	98.0133        	95.90674       	94.14305       	99.52872       	96.48561       	96.16174       	99.2868        	94.861946      	95.67308       	100.16605      	94.67257       	96.60423       	99.704254      	95.511795      	97.99845       	102.618324     	93.19598       	98.01358       	101.25157      	95.55025       	102.38069      	100.89026      	96.87383       	94.238525      	93.27743       	86.1798        	94.504         	95.97826       	85.88135       	90.2382        	93.0836        	92.35868       	91.98697       	90.874115      	
94.83841       	96.97157       	95.42644       	96.1471        	95.43138       	93.025566      	96.03358       	93.40262       	93.73259       	98.354546      	94.50723       	93.14137       	96.44844       	96.48115       	94.78427       	97.75827       	95.91715       	95.88485       	95.11081       	97.60902       	98.305534      	95.68967       	95.90278       	97.95649       	99.10655       	98.529434      	96.78169       	92.22775       	88.156624      	89.007095      	89.15152       	93.63989       	91.08271       	89.51573       	91.20271       	91.071045      	89.97489       	89.960434      	92.0751        	89.339676      	91.61361       	90.48561       	91.80628       	93.04318       	88.76891       	90.05489       	91.271904      	87.73219       	92.266075      	91.752205      	87.02963       	89.492035      	91.00085       	86.49967       	89.084526      	90.26087       	85.57026       	87.204666      	92.14438       	95.81666       	98.520195      	93.63618       	91.79081       	97.30806       	92.814865      	94.77892       	98.3549        	92.7552        	92.364105      	97.433624      	94.13808       	91.81503       	98.38591       	93.513435      	93.57166       	96.24951       	94.36455       	96.19538       	96.80489       	92.10308       	95.284355      	98.992035      	94.42632       	95.73865       	100.758804     	94.43868       	96.820694      	97.50807       	97.75971       	97.25098       	88.79093       	85.68068       	92.21378       	90.1738        	88.14564       	92.70341       	93.009315      	89.57525       	87.83964       	89.22042       	
97.84561       	94.02486       	96.36185       	98.10015       	94.48998       	96.63516       	100.77612      	93.45056       	96.662796      	99.35699       	95.87299       	99.823944      	99.319046      	94.697845      	100.700554     	102.823456     	93.95226       	101.89375      	104.57868      	95.16429       	99.23969       	101.21537      	101.07206      	103.41174      	101.31965      	100.56002      	104.63236      	94.16588       	93.10922       	96.81009       	96.97233       	92.45166       	93.311325      	97.428085      	97.02169       	93.48178       	94.91801       	96.70687       	93.296455      	92.728645      	96.304565      	94.14383       	91.30446       	92.992714      	92.61168       	93.54163       	92.45012       	90.506996      	94.033844      	88.18233       	90.15722       	95.97441       	89.45743       	85.79799       	93.391365      	90.80003       	84.43713       	89.51299       	95.0002        	96.059944      	93.85233       	96.05485       	96.836105      	93.70753       	92.40429       	95.31867       	97.15205       	93.0684        	92.230095      	98.41594       	93.493256      	89.98954       	94.17347       	96.41303       	93.02885       	93.596306      	94.8575        	93.6894        	93.554214      	94.76332       	96.06029       	95.08979       	92.391205      	93.404785      	96.4823        	95.71472       	94.51922       	97.539566      	99.37253       	87.63253       	86.051285      	91.70036       	89.58442       	87.948456      	90.44035       	90.06438       	87.108444      	87.137924      	88.82272       	91.132706      	
93.046455      	93.110954      	94.98986       	91.54955       	93.45185       	94.27026       	91.74322       	91.95307       	96.52119       	93.72437       	89.95756       	94.36209       	92.24029       	93.421524      	93.9191        	91.5622        	95.64477       	94.53464       	91.809845      	96.81852       	97.75411       	91.66536       	95.98445       	98.77907       	95.45423       	97.801834      	97.05911       	90.07484       	87.507774      	87.4594        	93.32263       	92.26917       	87.87066       	89.40519       	94.31841       	92.247734      	88.36968       	95.0185        	94.17559       	90.63327       	89.12585       	91.30877       	96.52696       	92.65614       	89.4138        	94.478806      	92.260666      	89.601234      	93.8459        	94.07024       	88.618286      	93.19713       	92.760704      	88.95411       	92.6554        	87.895134      	88.32701       	88.784386      	91.69686       	97.4132        	101.49996      	91.764496      	92.36352       	100.082794     	93.99986       	93.53442       	96.23677       	94.06569       	91.96614       	95.23833       	93.429146      	95.1559        	93.71541       	89.60379       	92.95284       	93.880936      	90.4994        	92.56943       	96.391         	90.72586       	90.75037       	96.829155      	93.88867       	90.445724      	97.496475      	94.11209       	91.01325       	98.8094        	97.20558       	85.58804       	88.048355      	85.39882       	85.73927       	92.270134      	84.27124       	84.82061       	91.93195       	91.51755       	89.03064       	85.80595       	
93.03111       	86.05245       	89.830124      	89.585205      	88.91303       	92.36862       	90.04469       	90.21557       	93.35283       	87.123825      	91.4893        	94.87511       	87.093056      	89.72741       	95.485176      	88.50603       	92.10156       	95.444595      	87.25721       	93.719124      	95.00219       	90.20834       	97.953476      	96.3857        	89.55628       	99.383095      	96.49447       	84.054085      	91.92074       	88.927536      	85.44303       	92.14741       	89.783195      	86.77099       	95.53545       	90.168625      	85.97641       	93.46696       	89.88201       	89.97752       	93.03186       	90.27535       	91.089005      	93.42064       	91.091545      	91.93257       	96.84041       	88.64448       	91.53664       	94.92489       	89.24108       	93.18344       	94.11839       	87.49207       	91.6069        	93.76714       	88.01058       	91.67758       	98.42229       	94.65735       	101.06459      	101.25389      	96.52907       	102.51811      	100.22067      	93.77166       	101.149956     	103.549385     	95.47718       	103.28447      	102.873        	98.18625       	102.52218      	103.325195     	102.068085     	105.34211      	102.10705      	99.60855       	108.621864     	105.130806     	97.98477       	109.23784      	107.491165     	100.7083       	104.84614      	108.360954     	107.23717      	106.588715     	104.825615     	99.62149       	99.23478       	96.90243       	99.412895      	102.11445      	99.4048        	95.67889       	97.76069       	100.0867       	101.66451      	101.066        	
97.249344      	94.53278       	95.62023       	93.39153       	94.99182       	99.24651       	92.674446      	94.08801       	98.82968       	92.98687       	95.55099       	99.27876       	95.52131       	94.75856       	98.24414       	95.562004      	98.101105      	97.901924      	93.46933       	98.311325      	97.89412       	95.76994       	99.96209       	98.49571       	95.97331       	102.80603      	102.9088       	89.0493        	91.97521       	93.821075      	87.93615       	89.85937       	91.46293       	93.51257       	92.83925       	89.76929       	91.12952       	94.60836       	91.119835      	89.33607       	94.80535       	91.2541        	89.05896       	90.72225       	92.94788       	91.96485       	90.27101       	89.32689       	91.151855      	89.54866       	88.99047       	92.6717        	88.716805      	86.7093        	91.19196       	88.38728       	87.364426      	87.28377       	93.67329       	95.484825      	97.75435       	96.91655       	94.71504       	96.51925       	92.68783       	94.78572       	99.53532       	92.02584       	92.254166      	99.64171       	91.96678       	91.87352       	99.92266       	93.12562       	92.70391       	96.22137       	94.77043       	97.994064      	94.05209       	92.68204       	99.6784        	96.9393        	92.520706      	99.58125       	101.16008      	92.49113       	96.66712       	98.43581       	98.56677       	91.20413       	87.371544      	89.61806       	90.13956       	86.92242       	90.64052       	92.96076       	87.454796      	84.11568       	84.93262       	87.14757       	
93.22154       	95.96223       	95.469864      	94.28818       	95.87891       	96.05427       	93.76242       	95.93985       	97.13394       	94.81804       	98.054115      	93.74743       	93.65185       	102.01728      	96.3656        	91.57153       	100.80934      	99.39449       	91.35365       	102.029655     	99.861885      	93.63065       	97.962685      	100.86016      	99.13248       	99.403755      	98.00937       	94.1317        	94.16519       	88.55174       	88.24825       	97.78895       	88.76033       	86.51518       	93.08574       	90.86259       	91.56005       	92.207184      	89.31282       	90.21767       	89.56719       	90.346245      	90.85734       	88.865875      	88.431915      	90.6411        	89.68079       	88.22413       	91.805595      	89.67074       	86.35599       	89.71378       	90.79249       	88.753555      	86.54066       	88.48799       	87.58379       	84.66314       	91.792595      	96.334724      	97.12962       	93.06664       	91.777664      	100.22224      	95.27181       	90.53615       	99.331665      	99.15478       	89.90174       	95.47088       	101.66513      	91.88039       	92.36115       	100.17013      	97.888596      	94.19454       	94.756996      	96.934944      	99.76147       	95.66972       	93.982475      	104.88636      	99.30516       	90.532486      	99.41234       	101.8174       	98.64645       	99.73868       	102.425385     	92.55437       	91.17689       	95.43952       	93.81393       	93.15174       	89.38          	86.49093       	85.87911       	86.04048       	88.04603       	89.92946       	
98.00053       	91.76409       	96.65701       	94.9721        	89.98732       	95.480034      	95.01981       	91.702805      	95.99138       	94.99281       	93.12165       	96.11199       	94.805145      	96.12561       	97.27938       	94.008         	93.59893       	98.92632       	97.877235      	91.737114      	100.36027      	97.36267       	93.98474       	96.13147       	97.40968       	100.81046      	98.31688       	90.71451       	87.953735      	90.89076       	89.51945       	86.60754       	92.448944      	90.13644       	87.911995      	88.16894       	91.63728       	91.63384       	85.54682       	88.95668       	90.923584      	86.58682       	88.16675       	90.76966       	87.75217       	87.05543       	87.98064       	87.31618       	90.853264      	84.67829       	88.06939       	91.85168       	85.4669        	89.09729       	90.90264       	85.5079        	86.83993       	87.68907       	90.29546       	95.22232       	93.43028       	91.458         	94.770706      	90.06059       	93.181274      	96.79444       	91.35839       	89.93806       	95.847664      	93.19721       	91.165726      	93.3482        	93.29881       	91.50461       	91.81557       	94.751114      	94.89118       	92.925064      	90.21679       	95.46236       	96.93368       	91.577545      	94.40811       	98.576836      	91.053635      	91.53479       	94.989746      	94.782196      	98.26473       	93.59093       	94.748665      	98.203735      	96.636925      	93.92833       	88.96517       	83.438644      	80.60014       	79.86043       	78.58321       	88.303276      	
94.813126      	96.46729       	93.2872        	92.37072       	97.97424       	95.09969       	93.4322        	95.186516      	95.04027       	94.63439       	93.37245       	93.503174      	95.17201       	91.740715      	92.04787       	96.39363       	95.04753       	89.32756       	94.3158        	95.75842       	92.003784      	94.091805      	93.563354      	93.589935      	94.833565      	92.04098       	94.98439       	96.89885       	89.34112       	90.111824      	93.20423       	93.173325      	95.648346      	94.7281        	91.21931       	90.603546      	92.887924      	93.39201       	91.589676      	92.9292        	95.21646       	95.23732       	92.82405       	94.244644      	98.726845      	93.041084      	90.794075      	96.43005       	97.23785       	91.463066      	93.322556      	96.443115      	92.45419       	93.78          	96.0824        	94.24142       	94.41919       	91.30272       	94.002266      	97.47039       	91.574265      	90.33459       	97.19577       	93.35685       	88.56905       	98.38789       	93.873985      	88.492676      	96.8404        	95.674835      	91.59274       	93.68297       	90.82715       	93.19402       	95.50109       	90.382164      	91.83744       	97.59714       	88.475746      	90.51196       	99.48115       	89.35767       	89.255974      	96.09432       	93.21642       	92.97749       	94.56993       	91.24102       	96.75195       	96.48671       	89.473595      	96.94034       	100.32328      	88.64302       	93.9576        	92.2585        	87.062675      	86.252235      	95.4071        	95.74317       	
99.22965       	95.18794       	96.72862       	98.561874      	99.02094       	96.51652       	98.23335       	99.0877        	95.37202       	100.52119      	101.61129      	96.48846       	97.526566      	101.29097      	98.57084       	97.74044       	101.583626     	98.09363       	99.26437       	98.67907       	99.83522       	102.46778      	98.322395      	97.091484      	101.11344      	98.18664       	98.90352       	102.80709      	100.46321      	98.609726      	102.10938      	101.20919      	100.288246     	101.64071      	101.41427      	102.52689      	100.638824     	98.92842       	104.892525     	104.52727      	95.93954       	101.282845     	104.03576      	96.75895       	101.53258      	102.267426     	97.85206       	100.74903      	98.93877       	99.07088       	104.803825     	97.76653       	96.56978       	104.395226     	98.08564       	96.38494       	103.238716     	99.63951       	94.14035       	100.0415       	99.932495      	95.77832       	98.491905      	96.060715      	97.140625      	99.41097       	95.65109       	97.40131       	100.45316      	94.53262       	94.07094       	96.38609       	96.97482       	96.34069       	98.297966      	95.204155      	94.4443        	94.84273       	99.22192       	94.67223       	93.51436       	98.07785       	94.959274      	95.03226       	95.58882       	98.39437       	94.56787       	93.34389       	97.79858       	98.20521       	96.26322       	92.93403       	99.19902       	99.834         	93.7226        	96.89613       	100.90816      	99.57359       	96.87101       	94.61244       	
92.27837       	94.418976      	92.52746       	94.95665       	94.05634       	93.166664      	95.616295      	92.957756      	92.64354       	92.950455      	94.25725       	94.78929       	94.401726      	93.18998       	91.69124       	95.13696       	96.04599       	92.44178       	92.83531       	94.8836        	93.69466       	90.97834       	95.70399       	94.07775       	90.883804      	93.07193       	95.50496       	94.70952       	90.81922       	93.0087        	95.528915      	91.20243       	93.28016       	94.00716       	94.36727       	91.2352        	93.08182       	96.36788       	95.037315      	91.41899       	93.65592       	94.19312       	92.4322        	91.781845      	93.773796      	93.26286       	90.59083       	94.033035      	95.070435      	90.53307       	90.56556       	93.096725      	92.58557       	93.399284      	90.114426      	91.448654      	95.76673       	89.63215       	88.86592       	95.89592       	90.46968       	85.65336       	88.5773        	91.06491       	92.43529       	88.65759       	89.60847       	91.046844      	86.71866       	89.280716      	93.120285      	86.69951       	87.82771       	90.05638       	87.24092       	89.00365       	88.62981       	86.52342       	90.71172       	88.15146       	85.223595      	92.511925      	89.34311       	82.71216       	89.54064       	89.64074       	86.76042       	88.25375       	88.02885       	87.15477       	87.43974       	86.74207       	88.989136      	89.82497       	85.8763        	85.37772       	88.78798       	89.11748       	87.64441       	87.55218       	
88.62267       	91.652695      	89.436295      	92.16308       	89.253174      	94.49782       	93.53004       	86.2579        	93.41296       	94.53325       	87.85466       	92.87812       	95.63647       	87.65058       	92.1035        	92.0664        	87.89765       	96.05651       	89.29925       	85.91527       	95.15292       	91.13693       	88.14803       	94.59903       	92.7282        	88.12586       	93.62101       	90.8182        	91.29831       	95.70227       	88.26092       	91.07796       	96.09877       	89.46024       	92.0652        	97.47952       	90.95106       	92.3031        	95.36779       	91.33652       	93.79726       	95.15967       	91.91768       	92.95851       	95.35189       	92.99568       	95.601         	94.336555      	90.59026       	93.720345      	93.56314       	91.86275       	94.91325       	95.265144      	91.93127       	96.02599       	96.12932       	94.13276       	96.260284      	95.98759       	92.85463       	94.94394       	97.90552       	95.484215      	96.43087       	95.53973       	96.57914       	97.25244       	93.99953       	97.759834      	98.44386       	92.71646       	95.50047       	102.27259      	94.76511       	93.26055       	100.12453      	96.56075       	95.81994       	99.47766       	95.58647       	97.10223       	99.00562       	94.922554      	100.200836     	100.50253      	93.62483       	97.918076      	98.73225       	95.52226       	100.32374      	100.47972      	94.65473       	100.00776      	99.094955      	97.5234        	99.076065      	99.31206       	99.404655      	97.268715      	
96.14833       	93.5835        	97.93171       	92.26543       	91.8794        	97.42089       	95.33475       	89.914185      	94.974625      	99.08662       	92.90777       	92.34506       	96.39764       	94.36124       	93.87037       	93.28096       	95.83299       	94.52878       	90.05181       	93.23317       	97.270226      	92.63146       	88.548836      	96.324234      	95.77611       	87.163765      	96.13471       	95.120346      	90.531494      	91.159676      	95.962006      	94.941246      	91.947914      	91.26795       	92.37618       	97.04839       	92.12614       	89.30054       	100.22489      	92.42778       	87.80082       	94.49053       	93.25412       	92.4832        	93.491165      	91.56185       	91.50533       	92.99763       	93.03215       	91.718056      	93.02648       	92.21202       	91.21679       	93.26404       	92.98399       	89.83078       	93.480225      	90.78459       	88.93253       	96.15262       	93.93599       	87.954605      	94.01899       	93.95527       	87.52321       	94.67119       	92.50871       	88.79056       	91.677925      	93.456955      	90.04133       	92.81395       	88.94109       	88.48542       	94.99837       	90.39556       	87.94263       	93.70158       	92.8608        	85.99927       	89.62524       	91.1056        	91.89787       	92.04375       	87.728745      	89.8023        	92.881905      	90.03138       	90.20362       	92.84895       	90.58631       	87.15115       	90.44369       	93.77359       	90.20308       	89.45837       	90.751625      	91.566444      	92.426544      	91.09991       	
95.13178       	88.941666      	92.43806       	95.443794      	90.263306      	91.59502       	95.14977       	93.89161       	89.144455      	91.87663       	93.69205       	94.00373       	89.04924       	91.2374        	94.96007       	89.889046      	89.79749       	95.77349       	92.26694       	88.16369       	94.07667       	96.167404      	90.62928       	91.30342       	93.02213       	93.234566      	94.23305       	90.6307        	93.83823       	96.310844      	90.45471       	89.234825      	95.586555      	92.77572       	91.63827       	94.57581       	91.35114       	90.52898       	96.0924        	93.39967       	89.86545       	95.145676      	94.15995       	91.394356      	94.97616       	91.714676      	93.42778       	93.3651        	89.84496       	94.53956       	97.756134      	88.72374       	92.51026       	97.6326        	88.05631       	94.45521       	95.20635       	90.111046      	93.82551       	95.5208        	91.01097       	96.089264      	93.42644       	88.34565       	95.18281       	93.7045        	90.60913       	96.255486      	94.187386      	88.70818       	95.63848       	94.83736       	90.79439       	94.417404      	94.97901       	90.38753       	91.84667       	96.66255       	91.98771       	94.04339       	93.154976      	90.78978       	96.47027       	91.2066        	91.93819       	96.63927       	91.165436      	89.846756      	99.62688       	93.05202       	87.61565       	97.44432       	93.76998       	91.2286        	95.4627        	93.0313        	90.83196       	94.22613       	96.48791       	97.861534      	
93.88647       	88.42693       	93.066895      	95.73759       	90.83263       	96.31629       	95.01232       	89.22726       	95.83268       	93.639496      	89.13905       	96.946686      	94.86117       	88.05881       	96.483604      	94.64308       	89.852135      	96.763626      	93.33908       	89.41884       	94.41169       	93.601006      	90.311104      	95.13766       	91.8752        	90.84982       	92.3165        	91.41135       	92.61959       	94.3705        	89.60416       	90.58475       	96.54834       	90.796005      	89.897385      	97.13228       	92.575035      	89.58447       	92.62174       	95.15406       	93.003586      	92.42916       	91.715096      	92.65962       	92.647705      	92.91438       	92.56376       	94.5474        	93.160995      	90.103035      	93.056564      	94.40781       	91.91889       	93.86893       	91.91652       	89.937         	94.28594       	94.71733       	90.711266      	94.02726       	93.76391       	90.92208       	94.6504        	91.99338       	90.9681        	93.214874      	90.217094      	91.02995       	95.791954      	90.02284       	88.94239       	94.62296       	90.91995       	89.26865       	95.892006      	88.88554       	90.50249       	94.598434      	90.72474       	90.965004      	95.15346       	89.903656      	90.66802       	91.634         	90.851654      	93.92708       	91.375824      	89.07077       	93.782845      	91.75733       	90.27743       	92.33932       	92.91619       	90.900154      	89.45141       	91.372284      	95.72458       	94.41037       	92.812614      	91.290726      	
88.45247       	98.42232       	88.67737       	90.098114      	97.46335       	88.841995      	92.19833       	96.60719       	89.22014       	90.44903       	95.17465       	92.26508       	91.48194       	95.90683       	90.11811       	92.79122       	96.85438       	90.2712        	94.07247       	96.744316      	88.92427       	90.097084      	95.14213       	91.43355       	92.7041        	95.38265       	89.38818       	92.371414      	95.91596       	89.27631       	92.00265       	96.005165      	90.68181       	92.43083       	93.56591       	93.36846       	95.10311       	94.04          	90.02394       	95.303024      	94.82842       	89.845566      	95.456985      	94.21231       	93.03959       	92.05883       	93.77138       	94.61839       	94.6818        	91.52507       	91.015884      	95.48823       	92.45566       	91.09474       	95.221344      	94.084785      	90.543015      	92.130424      	98.32694       	92.82931       	91.68769       	93.55567       	92.2605        	93.99018       	92.31247       	94.062065      	93.694626      	91.048775      	92.264084      	96.565094      	93.58128       	87.817986      	95.37646       	94.651245      	89.76952       	93.65235       	93.97401       	91.05554       	93.73092       	94.51429       	92.02547       	94.788086      	90.636765      	89.949295      	92.62312       	93.33205       	93.06758       	93.778275      	92.29469       	89.264404      	95.02759       	93.945755      	86.578         	94.94129       	95.60579       	90.56152       	89.3461        	91.73067       	94.28616       	96.23292       	
93.02946       	91.23066       	91.19288       	95.22611       	91.15594       	92.16071       	97.3659        	91.352104      	91.17603       	95.21587       	93.32362       	91.06461       	94.44412       	91.99266       	91.26775       	93.68978       	92.25673       	93.73751       	93.69752       	90.34569       	93.55936       	96.71514       	91.44103       	91.67362       	98.74161       	90.90113       	89.34813       	93.341705      	92.72474       	94.06147       	93.17003       	90.294754      	93.620125      	93.15563       	90.73657       	92.853         	95.24642       	88.876015      	92.18983       	95.84509       	89.069954      	93.77003       	93.73168       	91.79447       	92.5078        	91.95517       	92.87794       	95.763016      	91.97763       	89.992294      	97.04573       	94.25057       	90.062614      	95.70306       	94.06108       	90.80321       	93.127235      	95.512886      	92.68958       	93.40682       	91.69035       	92.4517        	95.784805      	89.98555       	92.882904      	95.99044       	89.236664      	90.863         	96.525215      	92.405914      	88.7397        	94.87796       	93.47891       	91.03255       	95.287445      	89.522415      	94.01569       	95.53315       	90.34638       	93.74178       	97.07617       	88.434074      	89.67696       	93.02965       	90.97328       	94.278046      	92.693275      	90.69462       	92.648056      	92.682785      	91.53141       	93.67509       	93.426506      	89.266975      	94.31367       	92.22989       	90.34883       	91.789764      	95.12395       	97.113         	
96.962456      	89.196884      	92.733955      	94.11736       	94.2826        	95.04553       	91.06479       	94.2138        	95.26494       	92.070755      	94.92795       	96.55983       	91.0557        	92.40141       	97.14397       	91.348465      	93.46174       	95.88451       	91.394005      	92.76017       	93.71434       	93.98271       	94.56325       	93.47602       	90.26705       	93.82673       	95.718575      	90.74633       	93.801445      	96.01331       	91.7754        	91.31241       	97.874405      	93.41789       	92.72815       	95.35033       	93.353874      	96.23397       	94.29731       	93.3715        	96.01563       	94.52453       	91.831535      	97.74459       	97.59769       	89.990974      	94.83353       	98.652885      	91.68444       	93.84671       	95.80828       	93.16448       	96.75167       	95.1619        	91.44595       	97.16467       	94.28882       	89.11539       	94.03881       	94.29511       	91.93336       	96.82645       	94.06827       	89.91513       	96.82825       	94.79724       	91.69353       	96.10249       	95.24113       	91.869026      	93.41731       	93.58188       	94.95982       	94.808304      	91.06485       	92.84636       	95.3695        	92.15429       	93.425545      	95.61617       	92.217285      	92.063194      	93.05911       	91.04448       	95.77222       	93.374825      	90.84533       	94.26635       	92.23079       	92.40376       	94.6499        	93.511154      	90.53202       	96.9464        	92.20832       	90.30863       	95.61213       	98.637886      	96.32758       	93.12553       	
91.20475       	96.25028       	90.83058       	93.467514      	97.91322       	89.037094      	95.14281       	98.73408       	86.70183       	91.791756      	95.93645       	90.546265      	93.12638       	95.615364      	90.0534        	91.78059       	94.57621       	91.48706       	94.85837       	95.34117       	91.3309        	92.19941       	97.67184       	90.915726      	92.993416      	96.456314      	89.49184       	92.96385       	95.81334       	90.53682       	91.8712        	95.76325       	89.31803       	95.181015      	94.864         	88.67935       	95.28848       	96.11168       	88.014496      	96.90137       	97.591225      	86.172165      	97.60228       	96.36744       	89.30086       	97.8621        	95.84669       	88.16243       	96.1414        	94.62926       	89.84567       	97.346794      	93.02881       	90.59838       	100.19522      	92.186874      	89.14125       	100.60727      	94.07761       	88.56193       	96.91305       	92.49915       	93.88325       	98.61801       	92.2362        	93.980156      	97.199394      	91.984116      	94.77863       	96.648766      	92.159615      	93.87719       	94.861824      	93.97685       	94.77089       	95.15626       	91.84146       	93.750084      	95.31922       	92.20991       	93.27434       	95.47381       	92.95051       	90.99011       	97.42486       	94.09715       	93.177246      	94.93948       	91.69144       	94.33959       	94.18175       	92.58517       	92.9781        	93.98984       	92.81974       	94.35368       	96.44976       	95.21424       	92.746735      	91.57674       	
90.0183        	98.211006      	89.66502       	93.83245       	97.173134      	91.02019       	93.99012       	98.18873       	90.15955       	92.26363       	95.36449       	92.069695      	96.892044      	94.78509       	90.91806       	95.512535      	93.14595       	92.02219       	94.60367       	95.37438       	90.622475      	93.181816      	93.8418        	91.82585       	95.96303       	93.30913       	91.39833       	95.15788       	92.123886      	93.38774       	94.84996       	93.34887       	91.533455      	94.712395      	92.66318       	93.05298       	96.9337        	90.55172       	91.78341       	96.534836      	91.97946       	93.18553       	94.13927       	93.375534      	92.19795       	95.91643       	93.10744       	95.48807       	95.24476       	90.336136      	92.687004      	95.33998       	94.43652       	93.29325       	95.97664       	91.289825      	93.65343       	95.79469       	91.06474       	95.25583       	95.535645      	93.56817       	93.096344      	95.579666      	94.71301       	94.495865      	94.67726       	91.62113       	94.85278       	95.4706        	91.61792       	94.69854       	96.08116       	91.79888       	92.80221       	97.422104      	94.077545      	93.317474      	95.24151       	92.14986       	96.337         	95.18088       	92.16619       	95.26254       	94.49292       	90.18283       	96.16733       	96.53741       	88.69264       	94.19404       	96.71928       	89.80441       	93.09183       	94.774864      	89.363785      	94.25451       	97.86993       	94.329865      	90.42077       	89.37569       	
92.42964       	95.266235      	91.707886      	91.486046      	98.89237       	90.26143       	89.481895      	98.73996       	91.6521        	91.56108       	96.57007       	93.13116       	92.86134       	96.0597        	90.621544      	97.88077       	97.6481        	87.49093       	96.28304       	97.94404       	87.80617       	95.52071       	98.981255      	88.57573       	94.34349       	96.16314       	91.38969       	96.621735      	94.48364       	90.27551       	97.069466      	93.7826        	90.87932       	98.947914      	94.09905       	88.8249        	99.22697       	97.11846       	90.05407       	98.244736      	96.34685       	90.41963       	96.6795        	95.96463       	91.89967       	97.404305      	92.64542       	91.4047        	101.7131       	92.71707       	89.38368       	103.27601      	91.91776       	88.07696       	96.36104       	92.15242       	92.22176       	97.969635      	91.52215       	92.14977       	97.37235       	92.66838       	95.004135      	97.00956       	92.18596       	94.95319       	96.158676      	91.96275       	95.72255       	96.974945      	90.274376      	93.31862       	97.19024       	91.34546       	93.36063       	97.86363       	90.54489       	92.48621       	97.62798       	92.49429       	93.78232       	95.47786       	91.88646       	93.48127       	97.6801        	90.42148       	94.58339       	97.87228       	89.37074       	91.57945       	95.28636       	91.75622       	94.49672       	95.18323       	89.41085       	91.41446       	96.8654        	96.985954      	92.60704       	91.19282       	
89.23024       	94.52564       	90.97224       	98.60173       	94.41379       	89.86336       	96.987656      	95.36828       	92.1993        	94.943565      	93.25843       	92.76006       	96.06096       	92.31342       	92.595695      	98.08066       	90.123886      	90.18968       	94.54509       	91.957184      	91.922134      	94.44484       	92.58424       	90.96798       	93.40983       	92.943245      	93.349075      	93.162964      	89.983025      	92.27966       	91.461044      	91.34949       	92.37268       	93.03268       	89.47472       	92.75848       	93.67856       	89.12159       	93.80846       	92.79407       	89.77553       	91.77658       	93.330475      	92.57075       	92.10672       	90.98371       	90.03669       	90.96449       	91.70543       	90.30994       	89.92648       	90.32557       	88.80427       	88.01457       	91.705         	88.80172       	87.71129       	88.709335      	87.33419       	89.66047       	89.0026        	87.11629       	87.42388       	88.437096      	86.73556       	89.19096       	89.46135       	85.69885       	87.14509       	89.57666       	88.542145      	88.6883        	89.83387       	87.425125      	91.3486        	90.632744      	87.55989       	91.56789       	90.594284      	85.65565       	86.10867       	90.64251       	91.37763       	88.85509       	89.49374       	90.116035      	90.98387       	90.36131       	89.479324      	91.46706       	91.32938       	88.576324      	89.310265      	92.29916       	91.367256      	88.995895      	89.7922        	91.85165       	92.66224       	91.81882       	
93.086075      	99.99987       	93.92936       	87.72914       	95.25196       	94.44233       	92.796074      	96.67612       	93.73385       	92.66573       	95.83153       	93.44828       	94.25961       	97.19921       	92.6309        	91.944534      	94.79491       	95.231445      	92.64749       	93.89678       	95.27819       	92.7334        	91.604866      	95.99306       	93.295395      	90.82092       	93.58977       	92.89047       	92.58924       	93.30446       	90.99045       	94.00249       	92.15178       	90.2098        	94.65665       	96.2274        	87.879814      	92.30448       	95.370476      	90.20735       	92.45337       	93.54133       	91.968925      	91.806915      	91.84676       	92.95263       	94.67409       	91.52696       	90.029465      	95.03246       	94.832695      	90.27466       	93.43262       	96.41011       	90.29792       	92.43014       	92.82822       	91.639084      	96.83998       	93.47069       	90.631386      	95.58215       	93.17069       	93.385574      	94.99814       	94.584114      	92.70775       	95.912155      	93.09223       	92.84872       	98.46797       	90.98295       	94.596176      	97.45702       	92.1223        	95.57124       	99.43856       	92.88456       	94.31885       	98.69234       	95.46757       	96.32166       	98.11691       	94.572075      	99.33405       	97.879196      	92.991714      	101.550674     	99.85273       	90.81259       	98.48771       	97.16346       	94.66904       	97.7482        	98.30856       	96.66955       	97.65473       	98.16032       	97.15022       	95.07187       	
96.33058       	90.86529       	96.35744       	92.4732        	91.50213       	98.3237        	92.11669       	91.10006       	96.652824      	91.21745       	91.82007       	97.42537       	91.26734       	91.08153       	95.64261       	92.52652       	94.135574      	93.8953        	90.9008        	96.06562       	95.56296       	90.47077       	94.93676       	97.731094      	89.730415      	93.50648       	93.11214       	90.53691       	96.74501       	94.456635      	91.5549        	95.16418       	92.51973       	93.12131       	97.32584       	91.15807       	93.23351       	97.565094      	89.1293        	94.6278        	99.38912       	88.38935       	93.285324      	97.777435      	90.39232       	94.29035       	97.189316      	89.70196       	94.92026       	95.418465      	91.29321       	97.56637       	94.52314       	89.23015       	99.12465       	95.509224      	87.93344       	100.10803      	96.817924      	87.19308       	96.894775      	94.33467       	93.94968       	97.12521       	93.84174       	94.92168       	97.0253        	92.66094       	96.40089       	99.16654       	90.71253       	94.191414      	99.6089        	91.97468       	94.208664      	98.329384      	93.26048       	95.2129        	96.18998       	94.89198       	97.38168       	96.53654       	91.66733       	96.6008        	97.13118       	92.50933       	96.12061       	98.518         	93.17181       	94.215004      	94.807655      	93.947525      	95.552536      	96.90487       	92.31705       	93.88698       	95.61134       	95.49081       	95.40438       	93.18025       	
88.89389       	95.662994      	90.985825      	92.760086      	94.51308       	89.79586       	94.45586       	94.063896      	89.85194       	97.17821       	92.88632       	89.383385      	93.960785      	93.62735       	89.99205       	96.65576       	91.3934        	87.505684      	96.84855       	93.2461        	88.2529        	93.55751       	95.97949       	88.3328        	93.13217       	93.82108       	92.390366      	94.81196       	89.27345       	91.03853       	96.721664      	89.73437       	91.47316       	95.472         	91.72521       	89.31414       	94.22327       	90.26098       	91.07826       	95.839966      	88.56562       	92.564415      	91.92757       	88.74458       	95.53995       	93.32686       	87.33391       	94.868935      	94.9492        	86.71738       	94.50045       	95.30062       	86.46798       	93.558174      	92.88317       	89.4898        	95.004074      	90.92496       	88.38304       	96.6232        	91.49901       	88.80313       	98.47188       	90.535065      	88.59212       	96.85955       	90.48656       	89.26993       	97.23443       	91.287964      	88.77813       	95.27531       	91.686226      	90.91202       	94.50532       	89.92142       	91.9874        	95.262054      	89.23682       	91.79605       	97.94545       	86.38146       	90.63196       	93.11356       	89.97242       	92.408         	94.15522       	89.5045        	91.93883       	93.53304       	90.53163       	94.29662       	93.59966       	90.16976       	94.38905       	94.51817       	90.80184       	91.83864       	93.1136        	96.05026       	
91.6976        	95.67253       	92.524055      	93.78519       	96.244125      	91.81859       	91.734146      	96.20589       	93.49984       	91.65115       	97.36422       	90.56787       	93.63001       	97.26329       	92.37206       	92.56158       	96.66596       	90.22822       	92.875         	98.025566      	88.1322        	93.114716      	98.35318       	87.78006       	94.86602       	98.52257       	89.0087        	93.42719       	95.699814      	91.12516       	96.28319       	94.26696       	89.684586      	97.198814      	95.21074       	87.184555      	98.68937       	94.8353        	86.11149       	93.80446       	93.77858       	92.32          	96.322556      	92.46182       	89.783295      	95.64213       	93.6419        	90.927895      	96.91495       	92.96102       	91.85286       	94.02698       	90.45549       	94.97968       	97.83745       	89.50552       	93.24027       	96.38978       	91.50057       	93.08904       	95.41148       	90.51742       	94.1672        	92.52619       	90.04302       	96.250275      	92.40296       	88.78568       	95.536064      	92.85084       	90.60069       	94.15681       	92.23633       	91.3934        	91.35697       	92.65596       	93.6213        	94.174385      	90.175156      	92.58271       	94.817345      	89.92253       	93.0525        	94.57621       	91.90301       	91.353386      	91.83407       	92.57039       	94.841034      	94.40473       	89.31913       	92.72417       	93.900986      	89.691         	94.42149       	96.002884      	93.095825      	92.66036       	93.26474       	94.84124       	
94.58297       	94.213776      	97.07246       	91.928314      	92.16924       	97.58703       	94.515755      	92.057076      	96.3999        	97.121666      	91.13976       	92.73455       	94.20424       	96.948524      	95.59118       	89.983894      	95.58549       	96.11918       	91.305405      	95.08578       	93.513145      	92.91418       	93.86402       	92.38672       	94.92013       	96.1921        	90.60414       	91.695724      	96.982315      	91.6103        	91.57263       	97.32399       	91.3811        	91.66462       	93.50438       	94.5153        	92.40663       	92.50997       	92.6951        	91.945724      	94.163895      	91.50208       	95.140015      	94.438126      	90.08928       	94.12105       	95.52571       	92.899666      	92.64144       	96.78233       	91.475426      	92.77652       	96.62565       	92.64705       	93.109825      	92.38911       	89.99995       	98.22945       	92.325935      	87.58595       	98.959274      	93.527794      	86.50009       	99.43349       	95.47153       	87.38428       	94.64613       	94.98746       	94.1156        	93.43065       	90.53357       	94.7101        	97.179115      	88.917366      	92.08786       	101.4058       	87.691475      	88.05277       	95.67506       	90.80516       	93.60988       	95.099625      	92.39465       	92.837875      	91.67647       	94.31145       	94.31845       	91.84697       	92.4602        	95.01132       	93.29007       	92.20767       	92.99866       	95.31465       	91.937386      	89.70699       	93.235344      	96.672745      	96.94595       	94.96367       	
92.47065       	93.88671       	90.01372       	92.615364      	93.93754       	90.63478       	95.523834      	94.67057       	88.62283       	95.155         	95.89727       	88.66232       	92.368195      	97.9622        	90.11824       	91.41724       	95.38496       	93.10848       	93.48886       	92.28413       	90.98333       	94.56055       	93.74735       	91.68071       	94.73888       	94.873985      	89.29876       	91.61496       	95.73849       	92.337654      	93.22933       	94.74479       	89.49496       	93.46951       	94.386734      	91.57788       	94.52885       	92.95622       	91.07521       	93.88237       	95.85936       	91.06988       	95.06052       	94.84691       	91.52201       	96.98844       	92.678185      	90.24916       	96.31572       	91.86065       	94.330185      	95.50202       	91.98695       	91.44315       	98.60802       	90.4851        	90.944         	97.81406       	90.32022       	89.60425       	94.88048       	92.49174       	95.7024        	94.18375       	89.61948       	95.29473       	95.35909       	90.26896       	93.20167       	98.06701       	89.75727       	92.96629       	94.873085      	92.92022       	95.23861       	92.10499       	91.683846      	94.098785      	91.93853       	92.29845       	94.100815      	94.39233       	91.0847        	93.628494      	94.08336       	92.34388       	93.9723        	94.405914      	91.351974      	92.14335       	95.76134       	93.81225       	91.73038       	94.25692       	93.24557       	91.4775        	93.16525       	94.24147       	95.64096       	92.136635      	
92.497444      	92.11822       	93.8342        	93.11191       	90.504105      	92.39627       	96.16391       	92.42229       	89.5597        	95.114006      	92.98116       	89.370155      	95.1064        	93.31505       	89.518135      	93.65717       	92.29748       	91.33055       	93.251274      	91.89222       	91.24855       	93.48906       	92.11893       	92.19776       	96.32484       	89.69493       	89.207596      	96.766975      	90.391884      	91.33119       	94.49749       	91.91745       	90.8362        	93.73036       	92.24869       	91.86422       	93.64454       	89.3756        	93.53664       	96.66798       	87.80577       	92.42871       	95.920845      	88.91854       	91.63549       	97.135414      	90.07374       	90.94899       	93.840614      	93.11329       	93.33559       	91.25898       	90.67573       	96.55156       	93.555984      	88.04697       	95.74711       	95.37945       	85.16147       	91.68164       	92.472824      	92.73491       	93.02851       	91.920975      	93.754654      	90.503136      	91.35583       	94.40663       	94.10021       	88.07236       	92.07403       	94.03277       	90.35909       	92.5778        	92.60582       	93.32454       	89.31662       	90.54898       	94.20271       	93.99791       	88.03019       	91.31831       	95.5952        	88.79231       	90.84452       	94.7986        	92.20417       	90.56468       	92.42094       	93.33983       	92.37125       	90.46325       	91.88131       	93.52774       	94.15897       	91.18584       	91.57789       	94.01567       	95.35099       	97.076645      	
89.78894       	96.67628       	91.58659       	92.26676       	97.34708       	91.103         	92.08896       	94.50015       	92.13072       	95.30446       	95.732834      	89.38449       	94.50638       	96.54602       	90.671906      	94.967026      	95.65038       	90.371475      	93.81255       	95.00529       	92.10921       	96.33651       	92.03902       	89.99931       	93.48727       	93.01758       	90.898445      	95.662476      	92.45737       	90.093376      	96.754074      	92.21464       	90.93554       	96.069496      	93.12806       	88.87549       	95.73897       	94.08804       	91.24647       	95.06595       	91.708336      	90.91016       	95.99879       	92.19254       	91.61275       	96.00239       	91.86046       	89.929214      	97.84298       	92.22701       	90.3086        	95.50647       	89.06096       	92.93663       	96.67762       	90.00456       	90.82851       	96.85654       	89.00493       	92.68556       	99.381714      	88.21506       	91.19222       	98.83728       	89.80756       	92.96821       	96.83963       	89.86344       	94.47487       	97.374146      	88.57939       	94.631134      	98.80945       	86.149         	93.40435       	94.87834       	89.32293       	96.82399       	95.0691        	86.879845      	94.76511       	96.44393       	89.96014       	93.20463       	95.57751       	89.969765      	92.39936       	94.58195       	91.20222       	95.35452       	91.89075       	89.80476       	96.75289       	94.80294       	90.24145       	93.688675      	98.51033       	97.22442       	91.75029       	89.79069       	
96.929405      	91.35543       	93.95157       	92.84537       	92.83761       	94.66135       	91.53077       	92.85092       	95.88207       	91.44179       	90.71988       	96.353325      	92.7165        	93.14877       	95.16943       	92.82472       	92.044304      	96.71193       	95.20216       	91.49153       	94.955894      	93.800446      	92.21362       	95.356155      	91.968506      	94.336075      	92.890816      	91.405014      	95.798256      	96.40843       	88.89921       	94.47171       	97.04239       	89.67596       	94.53158       	94.632355      	92.17382       	94.074234      	94.617935      	92.76369       	97.01311       	92.77723       	90.19402       	95.48681       	91.30016       	92.904594      	96.630905      	93.03155       	91.62513       	93.81761       	94.457535      	92.0009        	93.90626       	95.35619       	91.96028       	92.1062        	95.258736      	95.34464       	91.57048       	91.85071       	94.83789       	92.44498       	93.1761        	92.976654      	94.89425       	91.57946       	90.566025      	97.423325      	94.943184      	89.33317       	93.810394      	95.360245      	93.3934        	92.584724      	95.008965      	93.94682       	92.83305       	94.238525      	94.758026      	95.89442       	91.70226       	92.3901        	93.85177       	93.494125      	95.47999       	93.91517       	94.08231       	92.76332       	94.13028       	96.18739       	92.163345      	94.24818       	95.3599        	95.67554       	91.11995       	94.15173       	97.83092       	97.66808       	94.87267       	91.803665      	
92.17311       	90.92071       	89.94343       	92.91617       	88.99883       	94.31249       	92.50058       	86.66475       	94.74368       	93.78564       	85.22411       	94.3549        	94.60323       	86.07033       	91.56551       	94.68229       	90.88384       	91.627335      	92.98723       	92.02388       	94.44257       	91.29607       	91.538086      	97.27893       	90.2303        	87.76806       	92.62171       	93.60158       	90.08853       	92.8106        	93.51203       	88.95277       	92.87198       	94.31701       	91.71516       	92.72597       	92.948296      	92.15972       	93.170395      	93.854904      	90.002266      	95.408485      	91.54178       	89.65714       	97.33104       	92.65923       	88.670425      	95.97236       	92.85295       	89.699265      	96.73797       	93.05119       	90.14771       	98.57579       	94.06357       	91.83503       	98.730576      	91.06438       	91.620316      	93.90556       	92.38691       	93.94965       	95.58029       	91.056206      	93.340096      	95.47989       	92.22958       	93.18086       	97.180626      	91.43868       	90.1978        	96.107         	95.792564      	90.61076       	93.66615       	94.15656       	91.553215      	93.582535      	91.635284      	95.23748       	92.65498       	90.494965      	94.92944       	96.92188       	87.90487       	91.18659       	98.822334      	90.87822       	92.394455      	96.58139       	91.33156       	92.285         	94.30272       	94.854744      	95.14513       	93.73129       	90.360245      	90.54829       	93.451996      	95.87455       	
93.074715      	96.830864      	91.25694       	94.58249       	98.17791       	94.58679       	92.07674       	94.36385       	95.87711       	94.73441       	93.94606       	95.193436      	96.16324       	93.41911       	92.86979       	98.98127       	97.017914      	90.534775      	96.743454      	98.589645      	92.51659       	93.14238       	98.32671       	93.613945      	92.38685       	96.26329       	95.43538       	95.830154      	92.30291       	92.71431       	98.95705       	95.16429       	91.42435       	98.418045      	100.385124     	89.1441        	94.16063       	96.881035      	95.59931       	95.943306      	93.6069        	94.60068       	96.87703       	94.313126      	94.68513       	97.05345       	95.1465        	93.67545       	96.8746        	96.82308       	92.317085      	98.84815       	94.09844       	94.33044       	96.028656      	94.69401       	96.317505      	95.86901       	92.25807       	95.27696       	97.44034       	95.40714       	93.216484      	97.488655      	94.806274      	91.201866      	97.68347       	96.24987       	94.65471       	95.18597       	93.635574      	95.782295      	95.32459       	94.36435       	94.854004      	97.452675      	92.59337       	95.34483       	98.482315      	91.55919       	93.45183       	97.378         	94.99084       	94.32666       	95.46402       	94.15644       	96.513916      	96.92436       	93.210625      	97.788216      	96.67366       	91.18609       	94.18206       	95.449234      	96.86454       	94.788246      	95.157074      	95.92004       	97.20086       	96.598305      	
91.55907       	95.8982        	91.99724       	99.30048       	95.50298       	92.8162        	97.530815      	93.98481       	91.64637       	100.33504      	93.615005      	91.15112       	98.9047        	94.405205      	92.13604       	98.05835       	93.90901       	95.21776       	96.915146      	92.94261       	95.89574       	99.418564      	91.203735      	93.15177       	98.62249       	93.20015       	96.05588       	98.62118       	94.02385       	94.18686       	96.45983       	95.81348       	96.323906      	96.34761       	92.73467       	94.780685      	97.973274      	91.96611       	96.01564       	96.88842       	92.139656      	93.868546      	97.38991       	94.816826      	93.548454      	95.97059       	92.46364       	96.12382       	96.60866       	91.502594      	96.93216       	95.87477       	92.11853       	96.83564       	97.954094      	88.96993       	95.0222        	96.70198       	90.87532       	96.61168       	94.47432       	92.40328       	96.89851       	94.37695       	92.315674      	99.52855       	92.64612       	89.81633       	94.95727       	93.68811       	92.95419       	95.9732        	93.41545       	92.46589       	94.10136       	92.62064       	93.73729       	94.69146       	90.98548       	91.950966      	95.44385       	91.49297       	91.83028       	95.18409       	91.7531        	94.259445      	93.47454       	94.17163       	95.55157       	93.79251       	91.714325      	94.28633       	93.11377       	94.53722       	96.53019       	93.197014      	91.316124      	92.8112        	94.882256      	96.326675      	
94.989006      	88.66116       	93.68734       	90.77552       	89.016556      	95.09958       	90.5826        	90.76144       	94.27373       	90.11839       	93.06983       	96.485794      	89.03882       	91.28507       	95.12865       	89.75467       	92.42624       	94.64931       	88.685455      	93.692635      	92.913666      	89.38464       	94.976944      	94.99769       	87.54302       	94.06148       	95.27648       	88.46441       	93.35776       	95.08386       	88.944244      	92.89106       	94.935005      	91.56786       	94.98266       	93.544136      	90.40282       	96.721565      	94.553795      	88.632675      	98.09992       	95.638535      	87.1713        	94.950836      	93.79621       	92.33613       	96.40406       	93.14543       	90.08968       	96.91828       	93.73802       	89.76193       	98.96022       	91.6696        	91.07901       	97.023476      	90.838486      	93.13285       	98.88908       	89.89632       	91.33403       	97.87283       	90.853424      	93.008736      	98.14912       	89.50966       	93.4783        	96.14894       	89.44477       	95.93977       	97.70967       	87.354935      	94.32098       	97.42563       	86.94481       	95.094444      	96.522446      	87.96632       	94.473724      	96.4839        	89.84741       	94.50694       	95.41319       	87.57792       	95.9355        	97.379326      	87.43163       	97.51202       	96.606895      	88.06428       	97.366         	94.30934       	93.62251       	98.49096       	96.65612       	92.399155      	97.44547       	98.354034      	97.22181       	95.83365       	
95.89839       	92.928825      	98.91855       	93.79161       	90.64517       	98.23933       	94.794525      	89.51773       	93.799934      	91.69104       	96.18786       	96.53653       	89.923355      	93.73129       	96.856804      	90.977715      	92.26136       	95.28199       	91.66415       	92.24782       	92.984985      	92.9231        	96.07512       	90.88424       	91.46922       	94.68417       	91.05281       	92.96838       	95.40502       	93.0949        	90.43304       	93.263794      	93.737946      	93.97242       	93.53032       	93.71764       	94.48467       	91.502754      	93.17298       	96.25804       	92.03507       	90.46347       	94.835014      	93.190186      	93.04088       	93.822876      	95.22415       	93.626884      	94.561554      	94.34981       	95.92753       	94.80981       	92.43867       	93.50151       	96.67172       	96.61714       	94.01964       	94.430756      	95.221054      	93.38193       	94.86126       	93.53504       	94.27478       	94.17357       	91.5829        	93.13765       	96.664345      	92.412224      	90.79354       	96.39636       	91.84998       	92.516075      	97.51568       	91.04227       	92.09405       	96.18543       	92.06006       	93.91619       	96.24008       	90.038994      	92.77522       	95.6462        	91.802124      	97.073685      	94.675255      	92.097694      	97.6113        	97.27033       	94.48697       	96.491325      	89.165886      	84.61164       	87.682076      	86.33055       	86.92787       	90.957184      	89.410675      	85.159546      	83.7846        	84.05956       	
96.25062       	91.60456       	91.92171       	99.50689       	94.05394       	91.662926      	97.35853       	94.35938       	93.42088       	95.370766      	95.561714      	94.893745      	93.161064      	93.50339       	98.55089       	96.0994        	90.219536      	96.02443       	99.4851        	90.62703       	95.98922       	98.936264      	92.77584       	94.66419       	98.55069       	97.83024       	96.90994       	96.43997       	95.371216      	101.25501      	97.754486      	92.47624       	104.118774     	94.63497       	88.840805      	100.47078      	101.142075     	98.71522       	100.5143       	95.90146       	91.96542       	95.22133       	93.26277       	95.18792       	97.39635       	91.19356       	91.58378       	94.83033       	91.29448       	94.731964      	94.110054      	90.056915      	88.096245      	93.52807       	90.94678       	87.77701       	90.74426       	88.700966      	87.14863       	96.10851       	94.68858       	98.30767       	94.91573       	93.79839       	99.42237       	99.42156       	91.239914      	97.38831       	99.57618       	93.232254      	98.43795       	99.383965      	94.874115      	97.17949       	98.182236      	96.40385       	100.154655     	95.668785      	95.06803       	102.20519      	98.36039       	94.13543       	101.61674      	101.117065     	93.903206      	99.011925      	98.3816        	99.12363       	105.528694     	94.554405      	89.85449       	93.94709       	90.10423       	90.514656      	93.88028       	90.71502       	88.9649        	90.86362       	93.571335      	93.29334       	
95.6387        	94.38283       	93.7845        	97.79705       	97.31032       	93.251465      	97.6127        	98.46815       	91.63534       	97.93379       	99.18151       	95.778206      	96.76812       	96.2122        	97.03087       	99.66777       	95.25263       	96.86833       	101.47187      	96.00102       	96.673325      	104.95181      	97.18758       	94.45096       	103.03352      	101.28801      	100.26123      	99.068436      	91.53947       	92.64684       	94.075554      	90.144905      	94.377975      	96.72249       	86.57923       	90.259346      	94.8813        	90.65733       	90.18608       	94.62006       	91.6967        	87.64835       	93.08803       	93.53584       	90.80439       	90.028305      	91.06944       	90.92036       	91.2673        	87.95059       	91.26824       	91.56064       	84.16211       	89.02679       	94.34488       	86.519295      	84.691246      	91.032295      	87.03012       	90.29931       	99.50982       	93.65429       	96.1479        	97.45534       	93.19563       	98.66096       	97.68731       	90.003975      	96.39506       	96.69317       	91.219444      	98.476776      	98.54091       	91.37756       	97.784515      	96.25109       	95.40051       	96.60175       	96.077934      	96.81249       	96.43079       	94.49174       	98.42512       	100.995605     	93.34262       	97.62562       	101.477615     	96.352         	98.29693       	95.03695       	89.52171       	87.79923       	89.24152       	92.35376       	92.42684       	88.274055      	88.62211       	89.5055        	92.645035      	92.851166      	
92.78358       	96.02502       	94.43877       	98.81259       	93.8007        	94.69292       	99.841415      	94.40662       	94.38281       	101.06192      	94.09158       	93.598274      	98.938         	94.608246      	97.09415       	100.71264      	93.60627       	95.72183       	99.70081       	96.278336      	99.0064        	98.96651       	97.69614       	100.11722      	98.41682       	97.942764      	104.574265     	99.663         	87.91183       	92.80643       	93.73469       	89.83046       	90.43722       	95.381874      	89.873505      	90.87227       	94.78533       	93.236626      	91.37598       	91.07002       	91.939804      	93.621994      	92.40504       	89.82857       	93.80788       	94.03671       	85.601364      	90.019356      	93.54556       	90.04106       	89.733116      	90.71667       	89.2649        	88.739365      	92.44166       	88.32462       	88.45947       	88.70018       	87.90853       	94.99287       	96.425255      	96.39889       	96.707726      	95.03742       	95.04957       	99.96331       	95.69738       	91.8472        	97.9504        	95.67594       	94.67115       	98.07115       	95.71383       	96.48482       	97.680855      	95.79876       	98.04121       	99.87179       	94.49684       	95.78969       	99.04557       	94.83306       	100.35636      	99.718956      	96.5003        	99.89979       	100.5528       	98.8333        	103.160904     	97.51949       	87.33748       	92.809364      	93.78499       	89.442856      	93.82048       	93.01055       	91.2657        	91.55633       	92.10623       	93.20325       	
94.85914       	93.97747       	94.827705      	94.610794      	96.010796      	93.396065      	93.24467       	97.279594      	93.171196      	92.53329       	97.67688       	95.28746       	91.2974        	96.092285      	97.427414      	92.243164      	94.40358       	95.24155       	93.61484       	97.56105       	93.740776      	95.70121       	97.81031       	93.965645      	95.52943       	101.83435      	98.28504       	92.334526      	93.071495      	88.92248       	86.32617       	93.45733       	90.04286       	87.20318       	94.1888        	90.16281       	87.71225       	94.12455       	85.5961        	86.98516       	90.575645      	89.06648       	88.68285       	91.460686      	85.42597       	85.976616      	93.76678       	85.73139       	84.964935      	92.71064       	87.97259       	83.611855      	89.31989       	88.69815       	87.637505      	86.15677       	84.75096       	85.26242       	85.75292       	89.77459       	94.649734      	95.7273        	91.610565      	91.65986       	94.96807       	94.09551       	92.679276      	94.11796       	94.78014       	89.17809       	96.136665      	95.996056      	92.26798       	94.302734      	95.22995       	93.96777       	94.62928       	95.50175       	92.8383        	96.47017       	92.965904      	93.68904       	100.34311      	93.893425      	91.85994       	100.256485     	95.03581       	95.16691       	99.811966      	95.52593       	86.90569       	91.08852       	87.95793       	89.80684       	92.213776      	86.86869       	85.452255      	89.0645        	91.26761       	92.204865      	
98.455765      	96.77445       	96.77333       	95.6834        	100.58667      	97.59044       	94.16655       	98.64124       	98.05699       	96.679756      	95.392075      	100.07622      	96.22438       	94.38692       	99.14802       	98.802216      	96.60109       	95.63193       	99.09309       	97.84687       	99.20362       	98.80031       	99.694565      	102.07846      	96.60322       	97.33548       	102.73531      	101.63539      	90.34042       	92.06094       	91.936         	88.94756       	94.549225      	93.15247       	88.294914      	93.71445       	93.16987       	87.962524      	93.71403       	94.57665       	87.738846      	92.148         	92.85121       	91.251175      	93.683945      	90.12537       	88.90027       	94.2874        	91.4775        	88.25228       	94.54729       	90.45301       	85.495         	94.314445      	91.24493       	85.72046       	90.5374        	88.46623       	87.22078       	98.04264       	95.560165      	94.714615      	99.95517       	93.35889       	95.37558       	101.30472      	93.857086      	93.12299       	100.121574     	95.18465       	95.46721       	99.062706      	94.944534      	97.59859       	98.8833        	93.832886      	97.49013       	101.007416     	92.169075      	97.766365      	97.77803       	94.39901       	101.69182      	99.61193       	95.45752       	99.538124      	100.520386     	98.98874       	100.117744     	101.43664      	91.28178       	89.17968       	92.765976      	92.95152       	93.25829       	90.712166      	90.73809       	92.420006      	92.698494      	96.35592       	
