# www.neaspec.com
# Scan:	 	AFM
# Project:	 	20251007_PS
# Description:	 	
# Date:	 	10/07/2025 15:58:42
# Scanner Center Position (X, Y):	[µm]	49.66	48.17	 
# Rotation:	[°]	0	 	 
# Scan Area (X, Y, Z):	[µm]	5.000	5.000	0.000
# Pixel Area (X, Y, Z):	[px]	100	100	1
# Averaging:	 	1	 	 
# Integration time:	[ms]	5	 	 
# Laser Source:	 	4.5-15 µm nano-FTIR laser
# Detector:	 	R
# Target Wavelength:	[µm]	7.502	 	 
# Demodulation Mode:	 	Fourier
# Tip Frequency:	[Hz]	238,800.109	 	 
# Tip Amplitude:	[mV]	13.000	 	 
# Tapping Amplitude:	[nm]	74.376	 	 
# Modulation Frequency:	[Hz]	0.000	 	 
# Modulation Amplitude:	[mV]	0.000	 	 
# Modulation Offset:	[mV]	0.000	 	 
# Setpoint:	[%]	79.75	 	 
# Regulator (P, I, D):	 	4.206850	8.625812	1.000000
# Tip Potential:	[mV]	0.000	 	 
# M1A Scaling:	[nm/V]	0.426	 	 
# M1A Cantilever Factor:	 	1,000	 	 
# Q-Factor:	 	452.3	 	 
# Version:	 	2.1.11536.0
52.95977       	51.42312       	50.85846       	50.804764      	52.426228      	53.972027      	54.96727       	51.3908        	49.26638       	51.683647      	55.82931       	47.00478       	50.505905      	54.87171       	48.947056      	49.412117      	53.531975      	51.28289       	49.641216      	51.572285      	50.87545       	52.13302       	52.25553       	49.312656      	50.14184       	50.96572       	54.79976       	45.8639        	45.134243      	45.02504       	47.337795      	47.42089       	45.854515      	47.718723      	50.25193       	46.7013        	45.612434      	50.95942       	49.042973      	47.746155      	48.40816       	49.064148      	50.537815      	49.312424      	50.850845      	50.541477      	50.470783      	48.72022       	52.510944      	54.10071       	48.04161       	51.834953      	53.12321       	50.6186        	51.37009       	52.13897       	51.005417      	48.105656      	52.997208      	60.34019       	57.685818      	60.239506      	57.920006      	55.1223        	60.163982      	57.766495      	56.381058      	59.226242      	55.318184      	56.730904      	59.79681       	54.588398      	54.989475      	60.74095       	53.717243      	54.484257      	60.389694      	55.276375      	56.243355      	55.157043      	53.030254      	59.594326      	59.576866      	53.995197      	60.938656      	60.7637        	54.188416      	60.013123      	62.231136      	49.540035      	52.560234      	50.130047      	53.358097      	56.33005       	52.64935       	54.338078      	58.159157      	51.269466      	54.300163      	61.680363      	
83.214035      	87.02575       	90.47098       	90.82133       	86.78587       	84.375046      	88.010994      	90.444374      	86.125885      	88.04367       	89.183525      	86.37809       	91.87525       	88.38496       	89.00416       	91.70354       	86.94633       	86.59059       	94.50711       	89.23954       	85.935555      	92.86773       	86.17496       	87.54318       	93.40592       	89.869225      	90.73753       	82.81782       	79.92216       	89.23621       	85.07238       	82.78878       	90.29931       	83.579765      	83.06679       	96.350426      	89.26153       	85.717606      	95.05848       	89.79691       	88.09994       	93.94085       	89.00532       	93.28625       	95.832405      	86.65467       	94.142456      	99.01098       	88.65849       	92.749596      	97.56249       	89.33713       	94.52751       	97.6904        	91.41126       	94.695366      	94.42949       	91.10693       	96.478874      	97.60501       	95.808266      	105.31104      	102.541534     	98.097534      	104.56131      	102.92525      	97.4475        	101.5805       	104.288506     	97.384995      	100.26867      	102.7297       	96.898155      	98.02988       	104.526535     	100.01147      	100.377525     	103.02291      	98.64946       	102.19202      	101.48709      	97.49193       	103.80929      	104.14208      	95.82332       	104.0033       	106.33708      	100.102104     	103.42734      	92.771286      	91.61867       	94.09839       	91.68214       	89.15142       	90.56165       	87.87806       	95.45397       	103.94792      	96.53149       	100.279366     	
113.37436      	111.0015       	108.14985      	108.85859      	110.885864     	110.34044      	107.6152       	108.840904     	110.29393      	108.7951       	108.42707      	104.04848      	107.2696       	116.34191      	107.82532      	106.10932      	112.27189      	108.81779      	104.7249       	106.97753      	110.21744      	110.11264      	107.08251      	106.27462      	110.3862       	112.21862      	106.38072      	104.76857      	100.28032      	96.929726      	105.166534     	106.187225     	98.92073       	98.88155       	103.20316      	101.45741      	98.690796      	101.31156      	101.76918      	98.45804       	96.47228       	98.41023       	98.53962       	92.618965      	92.34786       	100.643845     	95.421005      	95.30545       	99.05199       	98.322716      	96.0392        	98.254814      	100.74544      	97.38781       	95.552216      	97.06267       	103.126755     	96.96767       	97.28239       	102.31662      	100.21457      	99.059814      	101.923164     	106.181915     	107.68559      	114.60839      	121.85381      	125.251816     	122.07368      	118.51002      	120.50236      	118.931046     	115.41472      	117.76453      	118.22917      	114.42903      	112.60887      	110.64887      	113.944084     	105.67467      	94.23845       	96.671844      	92.251205      	86.35202       	90.57978       	92.28447       	91.7104        	94.71591       	94.11651       	96.00456       	104.20949      	99.4377        	96.45836       	81.7408        	83.261475      	78.22222       	78.658         	82.599724      	80.202965      	83.2295        	
100.49154      	99.958916      	100.888466     	100.66151      	100.99943      	101.25673      	99.82712       	98.235634      	99.74102       	101.06383      	99.62479       	97.97859       	99.31773       	99.30195       	98.05055       	98.28991       	98.05013       	98.018974      	97.22306       	98.18505       	98.49614       	98.22189       	96.11202       	95.965546      	99.32073       	96.80893       	97.00843       	90.0999        	87.33167       	87.453995      	91.80207       	89.82524       	91.902214      	88.806145      	86.30809       	93.58313       	92.008255      	88.33693       	90.78047       	93.259926      	88.19583       	88.51632       	90.53589       	90.26989       	92.48869       	87.16244       	86.94711       	93.48764       	88.27165       	85.59782       	90.06445       	89.688385      	83.32614       	90.184654      	90.61691       	81.79382       	87.99327       	87.41092       	87.319         	93.29799       	96.00907       	93.205376      	93.45386       	92.50904       	90.12328       	94.02689       	89.13946       	87.53073       	94.56604       	91.74625       	84.014946      	91.41472       	91.83587       	83.24395       	89.70951       	91.62373       	87.88085       	88.30168       	84.993515      	89.34635       	95.01354       	83.915474      	88.27693       	95.759285      	89.00465       	82.16667       	81.93145       	74.42202       	70.02869       	70.752205      	66.84755       	69.52225       	71.23549       	70.66495       	78.37212       	83.77387       	81.65987       	91.302246      	95.921425      	86.50987       	
86.40026       	84.68367       	87.51314       	92.96057       	95.391716      	89.309326      	88.50037       	92.328926      	92.999916      	89.28822       	89.70765       	93.54322       	93.93774       	89.97949       	90.68222       	94.52514       	94.215294      	91.23299       	93.46193       	96.941         	90.97523       	89.81407       	96.70694       	95.98908       	89.86178       	92.72017       	96.129715      	84.46214       	83.41113       	87.17465       	86.776665      	83.57232       	86.84738       	88.84551       	85.152115      	84.30339       	87.30138       	88.878006      	84.99703       	85.44261       	87.388374      	83.367676      	84.65714       	86.567055      	83.652756      	85.55074       	83.98622       	81.828735      	88.05921       	85.34801       	83.96026       	86.90517       	83.095566      	84.414825      	87.95528       	83.73077       	83.00558       	86.965416      	83.73432       	91.235565      	96.103134      	92.05636       	92.60812       	92.5931        	87.86316       	91.15135       	93.93022       	90.522255      	91.78971       	92.15297       	89.309555      	91.43212       	90.69482       	88.42281       	92.177124      	90.07689       	87.69027       	93.522514      	92.032425      	87.89047       	92.08825       	91.13445       	89.99223       	93.48128       	86.46976       	77.99597       	71.18157       	69.75908       	70.268196      	69.797676      	67.260666      	70.642914      	70.729195      	71.90293       	80.46546       	81.77007       	85.184044      	93.21815       	94.54662       	94.91185       	
91.42439       	89.48821       	89.62487       	90.13052       	88.26401       	84.53336       	89.33131       	94.193924      	84.77063       	88.91424       	93.21875       	87.174934      	87.14376       	91.36067       	89.86544       	89.85106       	91.43145       	87.66264       	91.10177       	93.40964       	87.71061       	92.03601       	94.43892       	87.91207       	91.20821       	97.879395      	92.61928       	85.20616       	85.71672       	86.03414       	86.914665      	87.759796      	87.24903       	90.18387       	88.181114      	89.06959       	94.35242       	88.92257       	89.12896       	93.87174       	91.318794      	91.52701       	94.779015      	92.70415       	89.98526       	95.11687       	94.75846       	92.98015       	95.03295       	96.25019       	94.735634      	96.221565      	96.92862       	96.166824      	99.994         	95.83804       	92.76729       	101.079315     	102.80679      	105.00553      	110.972946     	110.57368      	105.89425      	110.330605     	108.60099      	109.83466      	111.24261      	108.41711      	107.514496     	112.08269      	110.03922      	108.04705      	111.76448      	108.31166      	108.628975     	111.69141      	108.80794      	107.9959       	110.84985      	107.897125     	108.521675     	111.326454     	106.876045     	101.606445     	95.91853       	84.93751       	83.995415      	82.6525        	76.56788       	76.57244       	79.95337       	79.118195      	79.414566      	81.18856       	83.56351       	88.173096      	90.70301       	95.653824      	106.08444      	109.52995      	
100.87297      	96.03564       	92.27553       	93.58758       	99.80397       	99.13052       	92.70739       	98.92704       	98.709946      	90.307495      	99.16468       	97.441925      	91.63179       	98.362015      	97.036995      	91.67343       	97.2           	97.347336      	91.89331       	96.951385      	95.12977       	93.45529       	98.74513       	94.9523        	93.008194      	92.35623       	97.62744       	88.22343       	87.31905       	89.023994      	90.38546       	89.99406       	88.08833       	89.90418       	91.86602       	91.49544       	89.542114      	90.452255      	94.42301       	91.657455      	89.371         	94.49283       	92.08271       	91.45072       	94.66975       	92.77035       	93.70158       	94.82376       	93.41527       	94.86842       	96.98066       	92.011505      	94.9015        	96.78832       	95.401505      	94.16163       	96.05146       	94.54726       	99.27051       	100.8051       	98.49657       	98.15767       	97.40787       	96.58729       	96.76709       	97.66765       	95.97334       	96.40511       	96.00361       	93.37671       	99.13018       	96.11787       	94.08203       	97.70304       	95.16361       	92.27694       	97.66821       	96.09911       	94.65414       	96.00475       	91.235565      	98.080086      	95.718216      	78.76727       	78.03801       	78.160164      	67.41211       	66.11653       	69.95405       	68.99895       	69.94813       	71.08693       	69.12313       	74.36525       	79.62896       	79.20629       	89.36069       	96.89066       	100.99118      	108.83846      	
95.28718       	98.701164      	95.56175       	90.52237       	89.95899       	96.98076       	93.91834       	90.258415      	93.37109       	93.900375      	91.39099       	95.07221       	89.477455      	90.95241       	97.32218       	90.76136       	92.112045      	95.18102       	91.82297       	91.76069       	96.71825       	90.99072       	91.772354      	94.566216      	91.706985      	94.63182       	95.2933        	92.13843       	94.77837       	94.25446       	89.667984      	93.64701       	95.31869       	88.19811       	90.457184      	98.49397       	97.782         	93.27022       	95.850784      	97.61274       	97.18905       	93.41603       	94.02926       	98.971794      	96.63307       	91.82723       	95.947586      	96.847015      	93.503784      	93.64476       	96.83542       	95.1458        	91.911415      	94.78128       	97.91486       	94.303795      	90.76967       	95.758736      	95.68355       	93.02162       	91.70214       	96.78526       	92.7982        	91.084145      	95.342285      	96.37178       	91.81767       	90.69307       	95.57324       	94.651566      	90.92719       	92.59502       	94.74517       	91.302         	90.038925      	95.46697       	94.344475      	91.04027       	90.188675      	95.82619       	95.238556      	87.50789       	85.31108       	77.85679       	68.77055       	66.29941       	68.2828        	64.68691       	64.63495       	67.58367       	69.40515       	71.42353       	71.05424       	73.81523       	78.87282       	79.66586       	86.0391        	100.5444       	106.01551      	107.45029      	
93.50768       	89.76746       	88.904366      	92.432785      	96.247475      	94.07681       	89.92867       	90.68018       	92.84007       	96.00502       	91.440445      	92.87291       	94.28569       	94.271126      	90.460014      	91.61598       	95.4109        	93.573135      	92.083664      	91.717316      	93.46891       	95.61807       	89.56429       	94.185585      	94.70295       	91.24577       	93.040855      	97.15278       	92.983925      	91.03604       	95.849556      	93.72398       	94.92425       	96.11449       	93.03272       	93.30555       	95.646416      	93.65656       	94.26049       	95.18448       	93.3568        	93.10521       	94.6086        	94.54542       	93.721504      	96.875336      	93.26137       	92.465454      	96.42549       	94.381134      	93.157455      	95.2779        	91.930534      	88.91163       	99.58531       	94.582924      	90.64294       	96.35892       	94.715034      	91.85225       	94.23864       	92.61168       	93.540115      	96.64664       	87.258835      	91.36374       	98.08916       	89.36827       	91.04504       	94.355225      	89.86832       	89.86278       	93.81821       	92.003525      	90.00078       	91.77833       	91.71301       	94.15365       	91.323746      	89.318756      	92.13317       	89.48451       	77.008         	77.10936       	63.634075      	65.2155        	65.88876       	64.07755       	63.740818      	67.18457       	71.82231       	73.298164      	70.07372       	73.49767       	81.398796      	80.7754        	88.1394        	100.41365      	108.49581      	107.01926      	
94.28317       	93.916824      	94.94439       	96.653885      	94.77634       	92.15516       	92.81897       	97.83951       	91.66981       	94.51839       	96.50483       	91.96513       	95.27154       	96.62914       	93.25465       	94.26498       	95.86476       	92.594574      	95.38099       	98.17823       	94.862076      	94.115814      	92.68781       	97.841255      	98.249794      	95.22285       	95.661026      	98.145256      	95.54476       	94.04004       	97.94585       	96.82236       	96.12707       	95.25618       	96.19667       	97.75851       	97.496254      	95.71195       	98.52032       	99.30368       	93.33683       	97.90536       	101.56143      	94.50138       	97.352974      	98.88245       	95.194405      	98.5309        	97.60597       	96.322014      	98.97008       	95.56454       	94.6844        	100.920044     	95.98393       	93.728775      	98.92247       	93.714424      	95.13504       	97.792366      	93.536125      	95.412346      	97.34018       	92.77311       	97.25587       	97.83443       	94.119804      	95.82601       	92.4778        	92.05628       	100.54289      	93.62587       	92.61964       	98.672554      	95.244064      	91.75854       	96.72993       	95.63509       	93.12455       	97.05539       	91.139336      	89.42794       	88.638985      	69.988434      	73.56282       	61.150955      	62.38116       	71.4333        	67.767975      	69.186554      	77.01787       	72.81847       	76.99467       	77.48093       	79.94426       	86.78049       	92.30881       	97.86104       	113.274864     	113.61771      	
104.32872      	101.100174     	96.99113       	94.64041       	98.30656       	103.93073      	97.444595      	95.17121       	102.40438      	100.0129       	93.81711       	99.93143       	100.26058      	97.79334       	96.6681        	95.60303       	98.8835        	97.673874      	94.67457       	96.67632       	97.86832       	92.91539       	94.5789        	100.17131      	92.499275      	91.98116       	96.018555      	96.76202       	90.96172       	93.86149       	93.312744      	91.28426       	91.49943       	92.28667       	95.24243       	90.75233       	86.946205      	92.870865      	93.82814       	87.346886      	90.00277       	93.59012       	88.32455       	88.98089       	92.6507        	90.578735      	89.499275      	87.2482        	88.98445       	94.660126      	89.09206       	88.95546       	94.816124      	89.35446       	87.83855       	93.31747       	90.11876       	89.77577       	91.31459       	88.70472       	92.14234       	92.77132       	88.42054       	90.76106       	92.68208       	89.36072       	90.49854       	93.606094      	89.507416      	89.77602       	92.78984       	91.88268       	92.43555       	92.67037       	90.97191       	89.903656      	94.08695       	92.1077        	91.71933       	92.897095      	92.80341       	90.72          	83.29353       	79.33452       	72.2745        	63.87931       	60.683         	71.18853       	68.77767       	66.34396       	73.886505      	75.37594       	69.91069       	75.48883       	81.00457       	81.12987       	88.06713       	95.73908       	109.00306      	108.36906      	
98.103134      	97.483116      	99.54065       	101.63893      	99.99496       	96.281204      	98.58089       	99.39423       	93.70482       	99.26385       	98.783775      	95.4255        	97.76387       	96.94759       	93.923416      	98.79385       	97.86807       	94.89644       	97.58609       	95.414955      	96.62102       	99.842255      	93.97498       	95.752754      	97.44469       	94.773674      	95.20163       	96.74875       	94.448555      	93.40362       	95.61827       	93.73128       	95.45288       	95.649994      	90.46994       	91.262405      	97.19201       	94.09399       	92.82568       	96.189384      	92.10245       	92.033325      	94.96139       	91.04818       	93.14285       	94.9456        	89.41568       	90.59102       	95.74894       	90.689255      	91.02559       	94.39794       	88.49475       	90.947624      	95.72145       	88.46186       	91.514         	93.42103       	88.42208       	91.60768       	93.83571       	88.74015       	90.93307       	92.55558       	88.826675      	94.448044      	94.939735      	88.91839       	89.045944      	94.070786      	95.01694       	89.55562       	93.68437       	95.21889       	93.46346       	93.00247       	92.97226       	96.47156       	95.57099       	92.14945       	94.64106       	97.46829       	90.73498       	82.66763       	79.14336       	74.84129       	67.4487        	71.31739       	75.269264      	71.69881       	72.38619       	76.34274       	77.27771       	79.26932       	82.11242       	88.22761       	93.90903       	104.69139      	110.22791      	109.0298       	
94.66757       	95.624916      	89.48913       	86.60296       	89.86116       	94.50814       	91.09738       	88.41932       	92.434586      	90.20429       	91.731         	93.03511       	88.643715      	90.34138       	95.32305       	89.084724      	90.54902       	95.24916       	88.56154       	88.720184      	96.36644       	91.86222       	89.53735       	92.93053       	92.08414       	89.80895       	94.73955       	90.642624      	93.14372       	94.34672       	88.07677       	94.296196      	96.29418       	89.7622        	90.88155       	96.91713       	87.64548       	91.768524      	99.52257       	89.918564      	93.70705       	95.32399       	90.56986       	96.44478       	94.69278       	90.65036       	96.379196      	93.22476       	87.66846       	97.8098        	95.27933       	89.60993       	96.43373       	92.44276       	92.88409       	95.72306       	92.29952       	91.872955      	95.74836       	90.865036      	92.13061       	98.08759       	90.85426       	93.812126      	95.055405      	87.87547       	92.635         	98.233734      	90.00463       	92.74036       	96.07126       	89.97304       	94.49052       	94.01217       	91.28515       	95.83739       	92.525505      	88.48176       	96.877846      	95.56391       	89.16535       	95.25322       	96.71807       	85.46493       	81.69383       	74.793         	69.96046       	70.01771       	70.42859       	72.34606       	75.970505      	72.27407       	72.93786       	79.44572       	82.29301       	83.01663       	96.899605      	105.18091      	99.999115      	102.31159      	
88.58913       	94.32704       	98.005165      	95.02608       	90.11695       	90.83678       	95.02904       	93.50023       	90.29506       	91.42772       	93.42955       	93.846756      	91.070915      	88.51539       	92.98654       	95.11513       	86.49581       	93.6943        	94.73487       	88.04605       	91.41585       	97.621185      	90.84119       	88.34053       	95.08296       	93.319214      	91.177505      	93.10921       	91.90043       	92.65864       	92.11073       	92.03341       	93.07618       	94.87752       	89.545654      	91.25227       	98.94357       	89.56058       	90.76973       	96.00846       	86.97819       	89.496506      	99.1728        	91.736786      	91.405754      	97.43832       	91.213905      	95.56848       	93.78325       	91.281235      	96.2954        	94.55305       	86.27143       	96.25237       	99.37281       	86.35577       	93.55417       	97.71878       	90.35526       	92.20322       	96.31859       	91.91407       	91.86585       	93.38051       	92.71297       	95.8267        	89.336555      	89.76716       	96.49759       	93.6615        	87.57772       	96.38225       	94.090744      	87.379364      	95.20124       	95.367744      	91.946175      	91.25455       	93.20686       	94.76252       	94.36993       	90.58937       	96.03983       	95.256836      	82.79699       	78.873955      	78.69744       	72.90486       	69.35688       	73.396225      	77.48193       	76.448944      	75.59915       	81.58582       	86.509445      	88.26524       	99.12575       	105.96242      	103.04061      	100.08205      	
93.079185      	91.02507       	90.93879       	93.45297       	94.275566      	91.756035      	91.60445       	94.96338       	90.645615      	92.683235      	96.8222        	90.24414       	92.135956      	95.98282       	91.27254       	92.970184      	96.953316      	93.22496       	90.26677       	92.76988       	96.72299       	95.735504      	92.23954       	94.8012        	95.19593       	93.27601       	92.73155       	94.33248       	96.43639       	92.21887       	92.69751       	95.09239       	95.69544       	93.84481       	93.24539       	97.82162       	93.51112       	91.476715      	99.03094       	95.881966      	92.31234       	95.57045       	93.603325      	93.53139       	96.67326       	93.12218       	94.812294      	97.08674       	91.469765      	94.43906       	97.89143       	92.79833       	93.52339       	95.80294       	88.703865      	97.778824      	97.81159       	92.592735      	97.04895       	97.20946       	92.611885      	96.70417       	94.100395      	93.729996      	98.9721        	92.95307       	92.70304       	100.56121      	95.69878       	91.800125      	97.21258       	95.035736      	92.42562       	96.374435      	96.040436      	93.76086       	95.52047       	95.79708       	96.78938       	98.03238       	92.16089       	96.83403       	98.72588       	95.59811       	96.56168       	97.237495      	85.48372       	81.48131       	85.427826      	81.165276      	80.51319       	80.77572       	81.06619       	86.2288        	92.40983       	98.35865       	104.35866      	104.680664     	97.964874      	102.480804     	
93.94019       	98.04581       	101.23184      	101.431244     	96.978226      	94.57414       	97.69394       	97.85402       	95.498955      	97.89577       	95.10357       	94.44466       	97.357185      	94.896805      	94.40718       	97.813446      	94.90388       	90.85043       	97.13809       	96.569176      	92.12232       	94.76981       	91.71188       	92.52922       	94.43114       	92.8096        	93.08345       	94.84693       	91.09501       	92.059395      	96.09698       	89.87884       	91.7718        	93.91731       	90.10389       	92.44775       	94.84509       	90.85503       	87.641075      	91.55788       	94.73931       	90.722244      	91.20843       	91.48136       	90.453575      	90.30988       	88.9595        	91.55441       	91.98195       	88.9007        	87.12158       	91.75894       	89.66411       	87.61393       	90.61609       	89.40251       	85.27742       	90.824875      	90.710785      	87.07451       	88.374664      	88.52074       	87.80875       	88.385826      	88.4417        	87.59021       	89.75902       	86.671104      	85.40003       	91.19164       	88.18948       	87.39442       	88.36689       	88.07869       	88.31129       	88.41434       	87.61491       	89.54952       	88.47726       	87.039345      	89.96887       	89.4297        	88.89833       	89.97193       	89.48393       	87.08432       	92.307655      	92.58894       	84.590324      	82.20683       	78.891655      	77.647934      	78.79705       	82.282295      	91.03677       	95.561844      	89.304985      	92.47464       	96.42623       	90.90522       	
97.41259       	92.77177       	88.75524       	88.40913       	95.03612       	97.56758       	90.527664      	92.206955      	93.48003       	93.21591       	94.52276       	92.72848       	91.82658       	96.65365       	91.53197       	90.85562       	98.502266      	93.66019       	88.56576       	95.52152       	95.1749        	92.23729       	92.44178       	95.07619       	93.14323       	92.120865      	94.23162       	95.101845      	96.22485       	88.999664      	92.28352       	98.071304      	92.39821       	90.53464       	98.236786      	93.9066        	90.54095       	97.08119       	95.944984      	93.107414      	94.506676      	93.617325      	92.85577       	95.70397       	94.32791       	94.99585       	95.88081       	91.09537       	92.93344       	97.47386       	92.76095       	93.478714      	95.120186      	90.71723       	92.98244       	95.08151       	90.21798       	94.071014      	94.70659       	90.45767       	94.53698       	94.620964      	91.08719       	94.480415      	93.54504       	88.654495      	93.27147       	94.927734      	90.21935       	92.89782       	92.058235      	89.28233       	93.84233       	90.98471       	90.61108       	93.41805       	89.42866       	88.68159       	94.62183       	90.04588       	87.528946      	94.72057       	89.79968       	87.933365      	95.13205       	92.016075      	90.52071       	91.52441       	91.456696      	92.18502       	92.86884       	84.96696       	91.68135       	94.27581       	85.98063       	93.14486       	95.285904      	89.19226       	88.39985       	87.71855       	
92.545616      	94.71053       	92.96718       	89.2401        	88.63245       	95.69632       	94.360794      	88.31633       	94.58008       	94.37192       	87.52774       	95.029495      	94.48817       	88.122856      	93.602         	93.52907       	91.32653       	95.22655       	91.264084      	90.524734      	94.31117       	92.11636       	90.75951       	95.53604       	92.11482       	89.171684      	96.649254      	94.32808       	90.41009       	94.82201       	94.156784      	89.60291       	93.28633       	95.49904       	92.49446       	95.1829        	89.70623       	89.94605       	99.40052       	93.679695      	88.67259       	98.85897       	94.15284       	90.16698       	94.60457       	93.25743       	94.17433       	95.69454       	90.2753        	93.635666      	95.57148       	91.915405      	92.74498       	97.82907       	91.05692       	90.44169       	97.56947       	92.6694        	91.97274       	92.82422       	93.74341       	93.01574       	93.46085       	90.22661       	93.67638       	92.35963       	89.659836      	95.35882       	93.97787       	88.15036       	91.44565       	94.54404       	91.61984       	90.64427       	94.70512       	91.10116       	90.484375      	94.24663       	91.54411       	92.601875      	92.33764       	88.93103       	93.86175       	95.18863       	88.81801       	93.85855       	93.40711       	83.8999        	97.80395       	97.021164      	86.35095       	97.546906      	96.08693       	88.335625      	95.49923       	93.05643       	90.49891       	97.55856       	89.42555       	88.15996       	
91.80016       	84.70826       	89.36341       	98.092964      	99.852715      	89.93358       	90.17016       	97.96182       	93.30356       	92.4611        	93.826065      	93.79845       	95.74633       	93.64953       	88.70208       	96.81902       	97.71782       	87.97011       	94.87525       	98.382866      	90.26991       	94.02615       	98.86251       	92.076775      	93.49499       	94.02791       	93.69669       	97.570625      	93.33595       	90.11056       	97.43504       	93.99157       	89.88885       	97.29626       	96.23758       	89.67562       	96.1899        	97.39507       	92.13355       	93.09838       	95.14783       	93.52905       	95.538506      	92.93594       	95.361176      	95.62969       	92.05051       	94.77486       	98.34611       	94.02764       	89.79419       	95.898544      	96.24147       	91.30594       	94.689095      	95.85522       	92.96312       	92.95639       	95.016846      	94.08199       	92.48945       	92.431694      	93.1778        	95.85079       	93.92099       	92.343254      	92.81015       	92.65551       	97.41381       	91.509476      	93.1352        	96.32338       	92.69905       	92.543915      	93.64546       	92.498985      	94.27662       	93.8512        	90.749626      	91.25872       	96.20841       	90.882034      	90.88486       	97.020065      	91.59512       	90.49287       	96.8413        	94.5571        	93.6731        	94.6847        	91.87794       	94.883286      	95.71956       	91.4014        	94.84801       	95.90578       	90.50867       	94.5332        	95.92631       	91.21786       	
92.43118       	95.162056      	95.13273       	91.87344       	89.51706       	92.98539       	94.89063       	90.68556       	91.47197       	93.82716       	93.79903       	92.07622       	89.406334      	92.97576       	93.97201       	91.703995      	91.32378       	95.72984       	91.465126      	90.00131       	95.25835       	94.215706      	91.07531       	91.54969       	93.49649       	95.17845       	91.10497       	92.22726       	94.114624      	92.753525      	91.25394       	95.01198       	94.85494       	91.19953       	93.54884       	94.8524        	94.5007        	94.92101       	94.37134       	92.47386       	94.07919       	95.64647       	93.54351       	94.50749       	95.12228       	93.01148       	95.44454       	93.81253       	93.0211        	96.64566       	94.49498       	90.942924      	91.72044       	98.50025       	93.06813       	92.79039       	96.9661        	93.63066       	94.13322       	93.93579       	94.85011       	94.55319       	95.06156       	90.98905       	94.19219       	96.763145      	91.69921       	93.30969       	94.70673       	91.16534       	94.02588       	92.856186      	93.427216      	91.93412       	92.85849       	93.7577        	94.9192        	93.66967       	90.34553       	93.83886       	93.28345       	92.709114      	94.78138       	93.49601       	91.334755      	92.943726      	96.38965       	93.32521       	92.66973       	95.125046      	94.26923       	91.888916      	93.25575       	94.9252        	96.63032       	93.926155      	89.98021       	97.403244      	96.30226       	88.51219       	
90.3079        	94.82885       	95.94428       	93.00765       	89.243515      	94.03871       	94.10613       	91.465         	93.13961       	92.89295       	91.15691       	95.16838       	94.84269       	89.87315       	94.823         	93.94321       	91.84775       	93.51226       	94.291176      	91.39298       	92.86628       	93.13407       	93.09106       	95.24266       	94.618744      	92.483696      	92.44378       	95.95213       	95.23443       	92.303215      	95.1178        	96.17492       	92.70154       	92.974045      	93.21098       	96.0599        	95.42631       	91.69816       	92.50407       	98.42976       	94.16985       	92.63388       	96.94087       	96.1235        	90.876114      	95.721344      	97.41084       	91.51644       	94.94245       	95.92721       	94.32148       	95.112564      	95.41805       	95.6607        	93.958         	90.42132       	94.02497       	100.419075     	91.80108       	93.123344      	98.64751       	93.757866      	91.955826      	94.580284      	94.30555       	94.32637       	92.33351       	91.60259       	96.52469       	94.93858       	90.787834      	94.03276       	96.130974      	89.21831       	94.92543       	96.17056       	93.18567       	92.10312       	94.40894       	94.6755        	94.621826      	92.47853       	92.62936       	94.54398       	92.95548       	91.92542       	95.637856      	92.96826       	90.2613        	94.49908       	95.88455       	91.64082       	93.248085      	93.625694      	88.04721       	96.17238       	95.713905      	89.965256      	95.12394       	94.63488       	
93.170166      	90.64526       	92.706184      	95.99646       	95.016754      	90.137436      	94.10139       	95.75113       	88.99251       	92.49157       	96.74589       	90.94713       	91.79529       	95.379166      	90.02958       	94.870575      	94.33988       	91.479805      	93.601715      	93.58699       	91.447556      	95.72944       	95.69784       	91.17641       	94.03227       	90.40533       	92.378555      	97.894485      	91.91894       	92.12448       	96.495575      	92.70862       	91.00329       	95.88004       	95.21611       	92.69426       	95.084946      	91.11878       	96.63364       	97.21379       	89.97185       	96.66647       	97.40135       	88.37158       	95.98198       	99.16295       	91.68243       	93.22519       	98.49182       	93.356285      	96.468834      	94.55949       	95.61153       	95.8837        	93.11324       	94.599945      	98.136765      	93.4434        	91.81588       	96.12444       	95.734184      	92.081795      	95.94067       	93.71347       	91.73652       	95.58629       	93.42497       	93.06672       	93.329216      	91.72457       	90.805046      	93.05106       	91.93012       	91.990845      	95.418045      	89.16808       	90.4971        	95.71944       	92.76154       	90.12324       	94.89857       	92.0869        	85.87697       	98.54284       	94.65164       	89.91341       	96.34355       	92.92604       	91.73455       	95.50789       	92.61604       	92.08989       	98.298615      	89.821396      	90.29073       	99.235466      	90.61209       	90.81473       	96.74797       	91.6621        	
89.098915      	88.94352       	92.81759       	98.128624      	93.745735      	85.39592       	95.17579       	97.197235      	89.09632       	93.90663       	94.06621       	88.395294      	95.25939       	92.75882       	89.209175      	94.534775      	92.34842       	87.84603       	96.88372       	93.8711        	88.72819       	93.94328       	92.893135      	90.48007       	95.95075       	90.34669       	91.23492       	94.350845      	90.04317       	91.50432       	96.07903       	92.72538       	91.84178       	92.02502       	90.553024      	98.29748       	93.78294       	91.13799       	96.23266       	94.658005      	89.65837       	93.624466      	95.85428       	92.59464       	94.64568       	92.86518       	92.2929        	97.69069       	91.512825      	92.92688       	97.88851       	90.576416      	91.25139       	98.79761       	93.92697       	91.04032       	96.022896      	93.125946      	93.79649       	93.52356       	93.28791       	94.583336      	93.25711       	91.92383       	96.379074      	95.91337       	90.69723       	93.36406       	94.6222        	91.42961       	92.98747       	94.74976       	92.28559       	91.191055      	95.65889       	93.0944        	92.381805      	93.043564      	92.60599       	91.40548       	93.37507       	94.81094       	93.58096       	94.71595       	90.87098       	92.22649       	95.06819       	92.40332       	90.559814      	96.643394      	90.70637       	89.03712       	96.84977       	93.486786      	92.04126       	92.22541       	93.51189       	93.53592       	93.65013       	91.02314       	
90.636215      	91.00107       	92.955086      	95.687004      	94.331345      	92.86116       	93.4335        	93.38672       	92.32209       	96.15404       	91.69557       	92.709435      	94.950264      	91.41319       	91.56651       	95.80079       	93.348434      	90.218636      	94.25347       	92.369514      	92.660126      	95.75122       	94.58577       	91.49806       	92.81747       	95.70895       	94.67453       	92.60819       	95.98876       	94.01995       	93.97325       	93.61161       	93.41789       	96.88935       	94.718414      	91.45867       	93.1601        	97.613205      	91.51265       	91.98695       	96.90211       	93.11049       	91.729774      	95.019905      	95.49067       	92.88886       	96.13473       	93.184326      	91.60423       	94.7602        	95.75943       	94.43981       	95.81763       	93.69259       	93.20501       	97.04269       	91.731804      	94.47533       	96.62007       	91.4847        	90.1175        	97.50037       	94.13402       	91.01346       	94.22025       	92.48181       	92.03989       	94.624954      	93.26234       	93.15186       	95.19669       	91.04449       	93.837364      	96.7225        	92.03942       	92.42029       	93.19303       	92.90365       	92.91138       	94.46437       	92.10002       	94.02015       	92.59649       	92.52046       	95.51607       	94.33008       	92.63402       	92.53275       	93.46297       	94.66888       	93.15434       	95.181114      	93.55926       	91.58528       	93.96966       	99.4075        	95.31429       	94.232086      	97.86565       	94.870186      	
90.58862       	93.47188       	94.79817       	94.374664      	93.678986      	92.04937       	92.21626       	91.960526      	96.011475      	92.12804       	92.11406       	95.67195       	93.043045      	90.33601       	94.74908       	95.29761       	90.698044      	93.3804        	93.75212       	91.61291       	94.35259       	94.91127       	93.918686      	91.7343        	92.488075      	96.35639       	95.183945      	90.792725      	93.86986       	95.73654       	90.89125       	91.59374       	95.63668       	95.23999       	93.57259       	90.91613       	94.13616       	96.70094       	93.03757       	91.20074       	98.093735      	93.497604      	91.14319       	97.7705        	94.71852       	94.03792       	96.27731       	93.82621       	90.22794       	96.64486       	96.291245      	93.53517       	97.16827       	92.30403       	94.955         	95.76203       	92.347466      	92.86492       	98.43067       	90.312935      	91.3356        	99.73185       	93.60328       	92.22726       	95.70928       	93.17192       	94.74985       	93.880005      	93.9194        	94.29947       	94.21927       	91.54991       	96.700424      	97.79353       	90.02052       	94.56353       	95.23923       	94.21845       	91.77738       	95.26761       	93.96413       	92.744095      	94.41272       	95.014404      	95.87387       	94.44384       	92.765434      	93.740875      	95.0444        	95.72828       	92.999725      	95.53555       	93.67704       	92.55777       	94.19259       	94.306015      	94.786705      	94.22668       	93.600464      	92.45785       	
99.11589       	101.16854      	96.123825      	89.07647       	92.47404       	97.92548       	92.68454       	90.69149       	99.036415      	90.73186       	91.52589       	99.88948       	90.792404      	91.04524       	99.61252       	89.351715      	91.09419       	100.28031      	89.25738       	91.76069       	98.56212       	89.5716        	93.208725      	98.28069       	91.08497       	93.213455      	96.86144       	91.68232       	95.47431       	96.099365      	91.149284      	95.07008       	95.732704      	91.0112        	96.04881       	97.3435        	90.02538       	92.01859       	95.8868        	91.72462       	92.936295      	94.60121       	93.25823       	92.65218       	94.043655      	92.330376      	94.545685      	94.662544      	90.257645      	90.83123       	94.39137       	93.60579       	93.11119       	94.94051       	92.25237       	92.92721       	93.32783       	92.85683       	92.19998       	93.99951       	91.01867       	89.964554      	94.25153       	92.3332        	92.240845      	93.1107        	90.844574      	92.14059       	92.85761       	91.51338       	90.81646       	93.78364       	90.70557       	91.00851       	94.70863       	91.7008        	91.973915      	92.75008       	90.942154      	93.13749       	94.08487       	91.17565       	93.09111       	90.49806       	88.14702       	98.04066       	92.799355      	89.102974      	96.576645      	92.77788       	89.941666      	94.21432       	91.98254       	92.58924       	94.828156      	89.73225       	92.96357       	97.39762       	90.46221       	91.4563        	
92.510056      	99.37347       	95.96131       	90.30721       	88.794075      	96.20084       	94.899734      	89.57129       	94.04601       	94.32973       	91.578094      	95.72431       	92.39948       	90.00268       	95.43355       	94.14826       	88.97033       	95.90193       	94.09831       	87.44817       	97.01363       	94.2303        	88.77547       	94.82262       	93.3348        	89.656075      	95.5301        	94.07024       	91.13147       	95.449875      	91.31689       	91.061844      	98.65284       	89.19007       	90.966644      	97.77886       	89.94661       	91.60699       	98.046555      	94.81813       	90.65187       	94.30244       	93.926704      	93.82944       	93.58577       	91.57169       	95.50764       	94.11365       	90.23261       	95.7243        	96.28437       	92.121796      	92.529144      	91.58288       	91.91888       	95.31381       	92.38819       	93.71144       	94.541695      	92.38258       	92.99132       	95.39869       	91.05904       	94.89855       	93.08501       	90.60595       	96.35518       	95.14002       	92.02112       	93.19743       	94.92554       	92.59749       	92.6336        	94.45776       	91.4766        	92.19609       	92.7151        	92.86768       	94.8165        	90.68996       	90.06397       	93.91291       	93.442535      	90.92888       	94.08076       	94.66297       	90.96396       	93.736435      	94.79351       	91.91493       	92.808975      	92.87871       	91.906075      	95.1755        	93.77237       	93.534386      	93.43151       	90.15093       	94.27784       	96.783295      	
98.73561       	95.497856      	92.76714       	91.628174      	95.82728       	96.02705       	90.87749       	94.932785      	97.722664      	91.13974       	95.5407        	96.02759       	89.41529       	98.72663       	95.99687       	90.25819       	96.57706       	95.42841       	90.098885      	98.51568       	96.33388       	91.8794        	96.314095      	89.19646       	95.82885       	101.7535       	90.07751       	93.74104       	102.04308      	91.62432       	91.2378        	100.89057      	93.549515      	95.0961        	96.97119       	93.07702       	95.55969       	97.990074      	92.059395      	97.0979        	97.67156       	88.29684       	97.04943       	99.39852       	90.0223        	94.99281       	98.409966      	89.98075       	94.32909       	97.671196      	90.71591       	96.04329       	93.480835      	90.03085       	100.30912      	93.28646       	90.05188       	100.08603      	90.8433        	90.85332       	100.71153      	93.448235      	91.16603       	97.64348       	87.06874       	93.08621       	101.129036     	88.94714       	94.67226       	98.946335      	89.699265      	93.24316       	97.902306      	88.80866       	94.962326      	94.9532        	86.983284      	97.11608       	96.36796       	88.89991       	94.25654       	95.51413       	87.66468       	96.18134       	93.48756       	89.18257       	94.54194       	92.92754       	91.571075      	96.05545       	92.01208       	89.15841       	95.946365      	93.07106       	90.45984       	96.74093       	93.45568       	90.02612       	95.49401       	94.71677       	
95.1875        	95.64445       	93.033         	88.38899       	90.01197       	98.82927       	96.63488       	88.57409       	97.198135      	97.35857       	90.70387       	93.7334        	94.762         	95.204475      	94.67664       	92.22469       	92.35815       	98.69205       	91.91059       	88.95699       	100.045815     	93.92616       	87.29908       	99.26824       	95.56668       	90.502365      	95.4064        	93.31519       	93.99501       	95.53664       	91.863754      	93.69247       	96.96329       	90.06027       	93.46957       	100.42801      	90.29463       	92.09431       	97.76702       	90.83115       	93.777176      	97.84694       	93.51012       	92.58477       	93.50814       	93.84957       	94.54672       	93.14738       	91.51608       	96.3265        	92.20216       	90.6763        	97.38484       	94.70598       	91.10648       	92.39791       	93.635284      	95.339584      	91.40193       	93.44748       	95.7032        	93.99301       	90.382324      	94.47355       	95.90234       	92.33056       	93.01842       	93.10857       	93.41759       	94.20733       	90.880035      	93.68436       	95.190544      	92.13368       	91.56454       	97.41688       	93.67182       	89.95826       	97.02803       	93.270615      	93.33211       	99.246864      	99.01279       	94.14389       	93.304825      	98.33374       	98.05156       	95.430504      	95.12547       	99.08065       	97.69654       	92.808914      	95.71737       	98.9695        	97.36483       	93.84813       	94.90296       	96.39399       	97.54982       	91.1234        	
86.58139       	92.994675      	98.550606      	99.240685      	91.27478       	88.48466       	96.48608       	94.28243       	89.63192       	93.9227        	92.44551       	92.64774       	94.4646        	90.9419        	91.36072       	99.05412       	89.859566      	90.010185      	98.46336       	89.68973       	89.398994      	99.192635      	91.84281       	90.76494       	95.333         	91.9276        	93.61938       	94.480576      	90.98809       	94.730156      	92.92531       	89.750694      	96.58854       	93.34926       	90.59136       	94.43884       	94.16634       	92.795494      	94.58601       	95.417816      	93.27243       	92.25992       	93.825516      	96.30452       	93.3413        	93.64893       	94.425125      	92.36818       	93.00078       	93.71334       	94.348785      	92.613205      	92.02855       	93.118195      	95.78259       	93.1482        	92.290886      	94.42604       	87.20702       	95.10041       	96.86457       	89.80591       	95.10844       	95.167366      	91.19462       	94.858345      	94.081215      	91.611855      	96.456055      	92.898544      	87.886024      	97.449234      	93.75322       	89.46416       	95.62801       	92.79217       	90.79572       	93.61601       	93.328865      	90.51274       	94.44475       	91.234825      	92.6704        	96.56389       	90.3496        	91.86813       	94.24626       	91.77155       	91.55775       	93.85684       	92.79923       	90.84073       	93.482635      	93.646965      	93.86657       	94.55062       	92.89308       	91.60267       	94.42514       	93.87203       	
98.35413       	92.31815       	90.65772       	93.492195      	96.573975      	92.69813       	93.399864      	94.93275       	94.48329       	93.386856      	94.503586      	94.39826       	94.07186       	95.0674        	92.2662        	93.949425      	94.629036      	92.75017       	95.144394      	96.16919       	90.49589       	91.71943       	99.32333       	94.27227       	90.13069       	97.922646      	93.63646       	92.610725      	95.00493       	94.24254       	95.270515      	95.50728       	92.03683       	93.01208       	98.26518       	91.86996       	92.56129       	100.0634       	93.172905      	92.48891       	99.084         	94.690346      	93.00969       	95.21802       	93.196815      	92.65242       	97.38166       	94.03514       	95.39692       	95.021034      	90.850716      	96.6715        	96.04896       	90.70154       	95.694305      	96.62825       	89.11642       	93.928185      	98.19677       	91.57295       	92.96889       	94.51081       	92.80551       	94.458984      	92.88668       	92.3836        	94.68944       	90.64965       	91.214966      	95.69756       	93.61206       	89.677444      	93.60802       	94.61707       	91.06128       	92.81149       	93.12666       	92.74266       	91.78126       	92.78756       	94.19369       	94.10588       	92.34459       	90.33541       	93.783775      	98.11258       	90.7277        	93.81841       	95.762886      	93.03716       	92.5166        	92.84178       	94.545494      	94.569786      	93.56896       	93.302315      	94.19374       	96.214096      	90.957596      	95.43583       	
93.06548       	93.64825       	93.90911       	93.67285       	94.193634      	95.03374       	91.842964      	90.019905      	95.3236        	94.77957       	92.92753       	93.82988       	94.8134        	93.42596       	92.192474      	93.62995       	93.809395      	95.75811       	92.8815        	92.387436      	95.85143       	95.5714        	91.569626      	94.84791       	96.74852       	91.79581       	93.879326      	97.919716      	93.623505      	92.331406      	95.23922       	93.13671       	94.83712       	94.72264       	94.5872        	92.87565       	93.57331       	94.05521       	95.62779       	93.41895       	94.31579       	95.73154       	94.47645       	93.091675      	94.085236      	96.434006      	94.74218       	89.9971        	91.5757        	97.03612       	94.085014      	90.992584      	96.2354        	93.77436       	91.49977       	93.0632        	92.85817       	94.71504       	93.62204       	92.68907       	93.036934      	95.04606       	93.21864       	91.67134       	96.84775       	90.87835       	90.84086       	97.29202       	91.527725      	89.81034       	95.30042       	91.42591       	91.63815       	95.53854       	93.67504       	92.16694       	92.63154       	92.92259       	94.33664       	93.583115      	89.91064       	94.4335        	94.63187       	90.07211       	95.370865      	95.749016      	91.87596       	92.680046      	95.5945        	95.488075      	95.82281       	93.02591       	89.89034       	99.49263       	95.65876       	90.6871        	97.87109       	97.55896       	93.06235       	95.36591       	
95.64655       	88.74324       	87.67631       	92.92456       	96.600716      	92.31108       	89.09374       	97.321         	91.71704       	92.614174      	96.1373        	89.03775       	91.60395       	97.89221       	92.071         	89.305954      	96.45639       	92.12125       	90.6314        	95.40225       	91.767525      	92.36398       	93.82807       	92.783615      	94.81447       	94.36571       	90.40044       	93.92565       	95.17176       	92.13802       	94.56108       	95.89128       	90.59622       	92.75628       	97.14608       	93.36398       	91.15714       	95.8549        	93.64808       	90.32618       	97.56176       	95.714676      	93.81791       	96.48795       	92.81349       	93.83175       	96.35402       	91.89722       	93.42774       	98.21944       	90.06014       	91.77159       	98.738396      	91.30439       	91.35529       	96.12855       	91.71038       	92.485634      	96.760574      	90.77776       	94.634735      	94.51962       	89.33484       	95.412964      	96.13855       	90.244385      	94.373985      	96.03151       	90.19288       	94.49262       	94.64941       	90.13234       	92.52515       	89.95116       	94.28002       	95.86015       	91.09701       	93.144196      	95.48186       	90.63428       	91.616585      	95.35914       	91.69249       	94.088486      	92.254555      	90.781975      	95.075966      	93.366486      	91.768745      	93.09838       	94.10279       	90.63527       	95.61982       	92.9423        	91.69135       	92.88423       	93.48832       	94.95752       	94.10463       	91.83593       	
89.88414       	88.38217       	92.11747       	96.584404      	94.984215      	90.20816       	93.27184       	94.53604       	90.08473       	94.22248       	94.31035       	89.98853       	94.309906      	92.91345       	88.02984       	95.0287        	94.961876      	90.782974      	94.50115       	92.20528       	90.932175      	97.40864       	90.57452       	90.99105       	95.85628       	91.57963       	90.78039       	96.80102       	93.37029       	92.52001       	94.39702       	88.929146      	93.83338       	97.2628        	90.130356      	93.098274      	96.91736       	91.63196       	93.392815      	95.75908       	93.13061       	93.827515      	94.577225      	90.3372        	95.54172       	95.60835       	88.98013       	95.90252       	94.89845       	87.47635       	97.56408       	94.757935      	89.23528       	95.5622        	94.27032       	89.50892       	94.697876      	94.97534       	90.34726       	94.01893       	90.35479       	94.282684      	92.9648        	91.03211       	91.77464       	94.38029       	91.70763       	90.35657       	95.21336       	91.13679       	90.44028       	93.0297        	91.922         	93.57547       	93.16798       	91.77091       	89.15686       	91.72267       	95.84868       	90.59249       	92.55073       	92.55006       	92.32422       	92.01746       	90.05511       	93.00793       	95.28699       	90.60446       	91.14033       	95.56629       	94.00488       	92.382706      	96.43326       	95.2874        	93.339386      	94.45491       	97.24242       	96.13262       	93.04127       	96.84856       	
98.56928       	101.515396     	99.12692       	94.3175        	94.17248       	99.24849       	96.75552       	94.09882       	98.761505      	96.25094       	94.281494      	96.643524      	94.26043       	95.81547       	98.536896      	94.52635       	92.17177       	93.32362       	98.41606       	96.14          	94.74455       	96.655106      	95.78653       	94.4924        	95.21693       	95.59802       	96.264336      	96.72025       	94.35754       	93.70088       	98.64064       	96.08156       	92.88456       	98.53826       	94.67561       	93.27544       	98.41366       	94.90746       	94.79625       	95.69207       	94.97229       	95.56315       	97.99018       	93.068085      	92.86537       	98.079254      	94.52605       	93.83681       	98.91291       	93.23821       	93.08834       	97.92897       	95.629776      	95.28291       	96.368004      	94.16292       	97.60229       	94.96504       	93.83255       	95.341064      	93.3076        	91.36341       	95.47991       	95.402794      	90.34713       	91.72993       	93.25689       	93.38888       	93.595085      	90.95769       	94.69166       	92.821175      	90.20454       	93.13424       	94.82666       	93.14079       	92.28911       	91.10188       	90.51541       	96.41935       	92.08485       	92.55697       	95.491486      	92.29566       	92.33455       	94.38646       	93.57179       	93.146805      	96.06192       	92.32879       	88.344574      	89.54647       	84.890366      	89.97517       	92.891426      	83.635         	90.85958       	90.077354      	85.585495      	91.07417       	
91.61869       	93.46802       	94.99304       	95.47203       	90.831535      	88.29451       	98.940315      	97.96207       	90.44641       	97.30376       	96.86058       	92.80031       	96.462296      	93.68629       	94.37777       	97.58151       	91.81462       	89.98277       	99.85855       	93.90284       	90.19059       	96.31817       	95.93244       	90.88087       	93.92827       	96.4287        	91.83647       	93.779366      	95.52922       	95.22625       	95.06539       	92.140915      	96.15897       	98.36622       	92.23197       	94.98771       	97.14592       	92.147575      	89.62529       	93.473915      	95.60924       	87.77388       	89.86687       	94.60591       	90.10989       	93.47566       	94.519455      	95.484695      	88.422104      	89.66023       	93.7883        	90.236496      	86.70119       	86.95641       	92.38264       	90.450836      	87.368034      	89.14964       	86.78545       	93.371635      	102.4107       	95.74841       	97.65264       	98.32309       	95.27109       	96.07868       	95.41319       	94.529785      	98.31054       	94.833244      	89.6787        	97.35701       	96.04721       	90.937         	95.15339       	97.78028       	90.9509        	94.21428       	97.98462       	92.222984      	93.90207       	93.74995       	93.19953       	95.45077       	93.61597       	92.24727       	94.299675      	93.64693       	93.03138       	95.01568       	84.9616        	85.293144      	86.44642       	88.040886      	87.51539       	88.046844      	88.13891       	88.08459       	88.16301       	89.00624       	
92.60902       	94.75183       	92.80489       	89.33423       	88.5513        	92.5984        	93.31033       	90.962074      	92.58066       	89.97412       	89.83859       	94.01927       	90.591545      	89.78262       	96.27092       	90.79867       	89.452065      	96.57586       	93.47946       	89.25073       	95.520706      	93.10692       	90.73024       	94.949295      	93.055244      	92.197136      	93.24599       	93.642654      	85.02743       	83.90739       	84.86934       	86.49499       	85.72635       	86.637         	88.57094       	88.92782       	86.058075      	87.01559       	91.245804      	88.66068       	88.48732       	90.3702        	85.2172        	86.797844      	94.91316       	90.23437       	89.41729       	93.728874      	90.52141       	90.69536       	91.98063       	89.795456      	93.63992       	92.330605      	86.4873        	93.65935       	96.204704      	86.395454      	89.2115        	99.960556      	98.61711       	97.19585       	100.54256      	99.42441       	95.26331       	98.052315      	98.56235       	98.86531       	95.35646       	93.04658       	99.583046      	95.527756      	92.558876      	96.22661       	96.94349       	90.96957       	93.39338       	98.37788       	92.1064        	91.12352       	94.28792       	96.090385      	95.25323       	91.718864      	94.94779       	94.41744       	92.52137       	93.645676      	97.84921       	96.31715       	82.71996       	90.839516      	87.59436       	84.25202       	89.54667       	89.7441        	86.48013       	88.07267       	91.259834      	89.06745       	
95.77768       	96.00595       	96.336105      	97.1787        	96.67919       	96.18487       	97.00754       	94.03033       	95.55052       	99.67592       	95.630974      	95.35844       	97.9084        	94.79001       	98.260086      	95.21562       	95.84492       	96.99871       	95.933685      	95.69661       	97.302055      	96.42967       	95.257065      	97.506676      	94.79682       	95.981766      	99.20224       	95.65926       	85.7528        	86.66954       	92.794876      	91.18014       	88.35658       	93.81878       	92.109184      	89.53792       	92.70625       	91.95142       	93.1348        	91.953         	90.81782       	92.24731       	94.11888       	92.12512       	90.71314       	96.60392       	90.750046      	89.079475      	96.56726       	93.1548        	91.55891       	94.1558        	87.96856       	92.0714        	98.78421       	88.45783       	92.90573       	97.48702       	87.97521       	96.86657       	104.70649      	98.110016      	101.05999      	101.293        	93.44982       	99.99011       	101.65455      	90.851074      	100.55336      	100.102325     	90.90685       	98.78215       	100.615326     	92.42121       	95.91871       	96.8343        	95.655914      	96.13927       	96.73638       	92.37626       	98.27003       	95.58777       	93.79127       	98.50638       	93.829346      	93.555664      	98.60392       	95.20302       	93.31511       	96.89652       	84.510185      	88.04998       	90.39083       	86.32431       	91.09964       	88.5632        	86.98914       	93.23949       	89.78305       	86.41418       	
93.50123       	92.908035      	92.54565       	94.63648       	94.33477       	90.37736       	93.959435      	95.15587       	92.031456      	92.602005      	94.086426      	91.366264      	95.29212       	93.80446       	92.780464      	93.088066      	93.46288       	93.09578       	95.41322       	92.248695      	91.26199       	95.73638       	94.22311       	91.648605      	96.136444      	94.95284       	91.33831       	94.85063       	90.36268       	84.70964       	87.409424      	87.06978       	85.78279       	91.42301       	87.16377       	86.500244      	91.98246       	87.3793        	86.97584       	93.5472        	89.34822       	87.260445      	91.20152       	88.12576       	89.12645       	93.644135      	89.56892       	89.3589        	90.63224       	91.12247       	91.01144       	90.934906      	89.26036       	92.01461       	90.197136      	88.61612       	92.25036       	90.91407       	88.41015       	93.17193       	97.337494      	98.26303       	99.047905      	96.98919       	95.174194      	96.08283       	94.01472       	96.40224       	93.738815      	95.00872       	94.829346      	92.23288       	92.82453       	96.264725      	94.467476      	90.41129       	93.26683       	94.58192       	90.7093        	93.06203       	92.821846      	92.32999       	91.03803       	92.022575      	94.23315       	93.18177       	91.81054       	90.882515      	97.47116       	95.58074       	83.53545       	88.8864        	87.158554      	85.37804       	90.853226      	88.53332       	87.62965       	89.85664       	88.98145       	90.57967       	
100.4842       	101.110344     	99.26167       	96.83941       	99.676445      	102.86621      	96.48137       	95.56093       	104.19923      	99.44579       	96.08636       	100.79912      	98.79027       	97.22403       	100.6524       	96.61864       	97.80641       	98.27279       	95.87456       	98.71568       	98.50263       	93.83853       	96.065506      	97.53531       	94.857086      	96.95239       	98.572105      	93.33324       	87.77284       	91.968056      	88.12243       	86.22941       	90.86834       	90.221924      	88.501724      	89.15209       	89.044975      	90.66788       	92.333244      	85.56128       	88.92676       	92.85087       	88.38668       	87.249374      	93.767105      	90.14235       	86.76407       	93.97681       	92.11999       	89.97437       	92.49036       	92.26364       	91.34063       	94.38539       	94.04508       	95.20166       	92.927925      	90.00648       	97.62364       	103.37789      	100.93501      	106.71898      	109.09482      	104.20524      	103.552376     	107.792244     	108.637276     	106.224556     	102.93197      	106.80652      	109.98426      	104.92668      	102.73678      	112.9673       	105.220535     	102.56237      	112.294174     	108.00699      	102.231804     	107.45653      	109.77291      	105.856445     	105.90156      	106.36211      	105.61613      	107.523        	103.9038       	105.15418      	109.22799      	105.60135      	95.795044      	101.31652      	93.572395      	95.50401       	99.65068       	92.56731       	98.59627       	100.76588      	94.388435      	99.08752       	
95.39082       	91.27101       	91.65482       	94.73465       	96.00313       	92.846115      	91.67122       	93.94467       	93.85246       	91.69779       	90.807335      	93.66618       	94.07214       	91.921906      	88.35184       	92.98894       	92.53602       	90.051895      	89.88661       	94.43053       	89.01632       	89.28571       	94.37521       	91.28361       	88.68914       	91.00324       	91.79569       	91.68628       	83.3057        	82.782684      	81.76693       	80.49037       	90.26175       	84.88101       	84.284065      	89.079414      	85.78812       	86.315544      	86.91556       	85.291466      	86.46432       	89.64101       	80.373726      	85.678055      	92.08961       	81.00012       	83.698654      	89.841354      	81.405304      	82.25092       	89.91763       	83.51826       	83.20206       	85.125046      	80.79511       	87.20505       	82.85318       	79.42094       	84.45208       	85.97616       	86.0199        	92.84412       	94.24096       	84.79424       	87.14305       	89.2786        	87.91295       	85.99383       	88.01607       	88.09958       	87.0528        	86.0336        	87.240685      	90.08217       	86.223404      	85.00736       	88.205         	87.65843       	87.59778       	90.30181       	90.140366      	86.00304       	88.0055        	92.75728       	87.352615      	89.0195        	91.98588       	90.400055      	90.0137        	92.559364      	83.90796       	83.98083       	81.81989       	86.21303       	87.92701       	84.391846      	85.7985        	88.82726       	83.446335      	85.97928       	
88.26171       	87.36797       	87.5927        	89.651505      	91.06312       	90.40187       	87.86862       	86.791         	88.646614      	88.23222       	85.22092       	86.64423       	90.22782       	86.61503       	84.606895      	90.11869       	89.43859       	85.90636       	87.98796       	88.50362       	88.65639       	87.463264      	88.9782        	88.57419       	88.44828       	87.013145      	89.92981       	92.83382       	81.265274      	80.6347        	79.39605       	86.9557        	86.28999       	83.02862       	85.66684       	88.79908       	85.13881       	83.59948       	86.7135        	87.68217       	88.303375      	83.915924      	86.31571       	89.52441       	86.887825      	83.25183       	92.05722       	87.44018       	82.431595      	90.851204      	89.91263       	82.72148       	87.40051       	88.76571       	86.770134      	85.69486       	87.151855      	84.68428       	86.05189       	87.93049       	95.865425      	96.61393       	88.1646        	90.284424      	96.09225       	88.76938       	87.66359       	93.68136       	90.11467       	87.68151       	91.41586       	88.716324      	87.98811       	87.70317       	86.50895       	90.50899       	90.02917       	83.739105      	85.60609       	94.01824       	84.961006      	84.7991        	92.46631       	87.1371        	85.14716       	89.243195      	88.959564      	88.38469       	92.894485      	90.408165      	81.410835      	84.710526      	80.65031       	82.03737       	86.933945      	82.12515       	84.16426       	87.12892       	82.74365       	87.59543       	
89.934944      	86.96471       	86.66207       	88.01215       	90.24134       	90.03929       	86.885574      	88.417694      	90.03096       	87.33864       	88.01573       	90.32844       	89.05462       	87.873856      	89.49332       	87.506485      	91.218315      	90.78544       	86.457436      	92.62924       	88.89409       	82.178764      	96.60592       	93.10173       	85.82535       	94.397064      	93.54865       	89.028305      	86.364746      	82.52197       	85.67306       	89.45619       	81.70271       	88.04936       	93.93653       	84.00183       	87.82927       	93.02813       	88.258415      	88.62702       	93.61886       	88.91646       	90.83007       	92.11441       	88.68421       	94.43152       	92.60053       	88.02592       	93.61079       	94.07665       	89.18808       	93.974945      	94.133286      	90.30977       	92.054886      	94.0274        	92.476616      	92.6661        	93.03211       	91.77686       	99.96205       	106.12328      	96.78134       	97.962524      	101.46204      	98.011665      	97.75574       	96.55098       	98.189415      	99.15601       	97.41593       	95.19283       	96.77319       	98.695595      	95.61734       	95.455765      	99.8535        	94.80232       	94.470215      	98.96884       	97.53287       	93.7784        	96.63558       	97.19682       	95.6145        	96.6883        	97.20662       	96.60688       	96.17391       	93.94555       	90.98221       	87.27132       	87.31315       	92.588295      	89.66987       	88.07298       	93.42191       	91.53824       	92.14711       	88.930244      	
88.48662       	93.233635      	92.16131       	88.24279       	88.488846      	94.92443       	90.98337       	87.42137       	92.74992       	91.55595       	88.80327       	94.280975      	92.82903       	87.652794      	93.33526       	95.61093       	89.46673       	93.504074      	95.72262       	91.39613       	93.073654      	96.949394      	94.33129       	96.32861       	96.45167       	93.11746       	99.724846      	99.08456       	87.037796      	95.31035       	91.92895       	88.36372       	98.04251       	95.5584        	93.16333       	97.413956      	93.92752       	94.837875      	104.49051      	95.816826      	96.362686      	104.69246      	97.968834      	97.22917       	102.668144     	100.14118      	101.09321      	103.92327      	98.24768       	99.72252       	106.08393      	98.274086      	100.978        	106.83934      	97.64843       	99.9248        	105.38992      	98.87116       	97.28146       	107.12664      	107.75141      	107.130905     	110.185555     	105.74166      	105.131516     	104.38008      	105.16462      	104.95621      	104.89357      	100.33875      	103.42067      	103.24714      	98.21118       	102.16871      	102.59246      	99.91903       	97.522736      	96.55896       	98.11484       	101.21007      	96.861496      	97.373764      	100.50529      	96.176796      	95.96275       	97.470375      	96.619736      	96.61698       	97.314766      	94.213135      	90.06022       	87.49695       	88.62055       	90.097466      	88.74541       	88.443726      	93.616585      	88.02192       	89.23596       	92.09147       	
88.92753       	91.56847       	95.06588       	96.61206       	92.46505       	89.9445        	93.08191       	93.35851       	88.91614       	94.701065      	92.19608       	89.73878       	92.79679       	92.000374      	91.57181       	94.22489       	91.03741       	90.04422       	94.17826       	91.450806      	91.3654        	94.47367       	92.34355       	89.44543       	94.22473       	94.882744      	91.567825      	94.86099       	89.39948       	82.0977        	88.54948       	87.1217        	84.647575      	90.42978       	87.79123       	85.688446      	92.172966      	89.64375       	88.13502       	92.37692       	85.979546      	86.725006      	96.8661        	88.87385       	87.08076       	95.66781       	90.13171       	88.15618       	93.563965      	90.12911       	91.07319       	93.641205      	87.706184      	90.385025      	96.152794      	87.35686       	90.92687       	94.642044      	84.70032       	93.03281       	105.47568      	94.96008       	97.27446       	100.990685     	93.26891       	96.43701       	98.86818       	93.7616        	96.191734      	96.93733       	90.90218       	97.71069       	95.24621       	90.87736       	95.72767       	95.03703       	90.29195       	95.49796       	95.53532       	89.569565      	92.670815      	95.145676      	92.596855      	93.33389       	93.83207       	92.35062       	92.81174       	93.41904       	93.10645       	96.43298       	83.79032       	83.46725       	90.29414       	88.570694      	84.582466      	90.70163       	90.07467       	85.94896       	90.185745      	91.65132       	
87.60045       	89.77685       	92.50959       	93.45589       	91.65571       	90.33403       	91.86235       	89.45354       	91.14161       	93.89123       	87.42064       	90.59704       	92.68384       	87.920525      	90.11312       	94.20057       	90.642426      	89.1248        	90.193924      	89.12878       	93.76782       	92.1056        	89.483086      	94.48668       	90.77843       	88.53049       	95.59449       	91.98329       	83.732735      	86.89078       	82.511765      	85.44835       	90.10802       	83.39909       	88.37361       	90.99052       	82.51568       	88.05777       	93.37082       	84.728096      	87.82478       	91.87558       	84.29081       	89.54808       	92.90656       	84.99694       	90.62651       	91.298904      	83.18736       	93.22924       	93.31694       	85.33233       	93.132675      	92.1322        	85.548996      	93.55399       	91.29756       	84.91332       	92.50804       	90.98288       	93.62829       	102.119        	97.38962       	93.20963       	98.244255      	94.030975      	91.56763       	98.357216      	93.79676       	91.01803       	96.92545       	90.47416       	92.4286        	96.32924       	92.05922       	91.81405       	94.64778       	85.91822       	94.33008       	98.17033       	88.80756       	93.453926      	97.615364      	89.04236       	92.46098       	95.50345       	89.62702       	96.03608       	93.71667       	89.02619       	89.98787       	83.978424      	83.219246      	92.182526      	85.58859       	86.45558       	93.00572       	87.84868       	87.98361       	91.56744       	
94.85291       	96.124664      	96.65024       	94.83591       	90.9497        	91.98336       	98.944565      	92.93211       	90.34924       	97.65922       	93.91182       	89.593956      	96.414345      	95.44516       	91.908554      	96.65339       	93.13786       	89.92115       	95.37842       	97.30737       	91.4218        	96.85515       	95.095215      	91.69591       	97.465904      	94.48762       	92.84268       	99.278206      	85.26371       	84.98146       	92.24801       	86.51671       	88.67965       	92.84326       	87.7023        	88.5837        	93.82343       	88.18864       	89.713974      	93.3665        	89.33737       	90.40601       	94.13945       	89.99616       	92.04819       	93.61159       	88.23467       	91.86364       	95.056885      	89.98331       	92.380875      	93.14985       	84.757195      	92.71443       	98.23256       	87.08378       	92.50505       	95.10954       	87.78117       	94.746216      	100.58237      	99.86038       	100.98702      	97.64726       	93.88683       	100.28329      	99.4699        	92.670784      	99.84356       	96.61255       	90.12627       	98.68913       	96.754654      	92.34929       	94.667274      	95.78597       	93.04513       	96.8777        	95.32108       	91.26329       	95.77523       	92.94389       	92.61187       	98.18938       	92.6785        	92.32863       	95.57221       	94.453445      	94.20402       	98.20058       	90.10104       	83.91704       	89.78114       	87.95029       	87.80692       	90.066574      	89.2706        	90.40207       	90.9041        	90.90801       	
94.66393       	96.52229       	96.002556      	94.32912       	94.37971       	96.01207       	92.89777       	91.88469       	97.208664      	92.78512       	91.78531       	98.029526      	94.401924      	88.88433       	98.44466       	96.16394       	89.71623       	96.590706      	95.00554       	90.79741       	95.61923       	94.65821       	93.253525      	95.49963       	92.63991       	92.57401       	100.28525      	91.800644      	88.972305      	90.00048       	83.31898       	87.92253       	91.729126      	86.52662       	89.55139       	91.04355       	88.5936        	91.83312       	91.26606       	90.23831       	91.439545      	89.37748       	89.926865      	95.4737        	89.14293       	90.31161       	94.40996       	90.15698       	89.69503       	92.794235      	92.96717       	91.70023       	91.875374      	86.85577       	92.25616       	96.17432       	87.658005      	91.96596       	94.31227       	90.57881       	99.19618       	101.3999       	96.29035       	97.66752       	97.952675      	93.037         	97.301605      	97.0511        	93.33525       	97.70982       	96.10017       	90.418625      	98.41023       	95.065956      	92.50429       	95.52184       	95.16318       	92.24667       	95.830246      	96.25475       	91.15093       	95.91814       	92.78258       	93.49732       	96.17946       	92.73347       	93.78704       	94.44462       	94.60534       	94.440796      	86.780205      	86.53846       	87.8285        	87.104164      	91.33297       	89.790146      	89.87176       	91.5821        	88.84549       	87.737785      	
91.722176      	95.60966       	93.96595       	91.327194      	91.58349       	96.257355      	93.65871       	89.86131       	93.41162       	94.15405       	90.77467       	94.60497       	93.27249       	90.29395       	95.42526       	92.32357       	92.915054      	93.712944      	93.02518       	91.80385       	95.455986      	95.61124       	90.51738       	95.53169       	92.87019       	93.302765      	97.17659       	94.8205        	86.85113       	86.012         	86.08481       	89.43884       	87.681595      	87.571335      	91.088585      	87.102646      	88.57951       	92.543106      	89.45305       	90.216225      	90.477036      	88.313156      	94.39648       	91.29137       	88.961624      	93.573074      	92.45826       	87.575935      	93.48657       	92.302246      	88.94937       	93.371346      	90.70979       	88.31917       	95.19796       	89.7778        	87.99639       	94.36157       	88.13387       	89.02931       	103.92139      	99.45783       	95.984055      	100.409096     	94.157585      	97.34311       	99.50142       	93.31508       	95.15555       	98.643715      	91.30401       	94.59602       	101.30785      	92.58879       	94.46727       	97.821365      	90.52739       	94.650894      	96.68206       	90.81009       	95.49094       	96.88053       	88.726616      	94.98813       	98.541176      	90.3544        	97.259735      	96.24304       	90.062454      	98.27436       	84.19967       	86.13161       	92.005135      	86.65648       	86.32948       	93.72571       	88.72834       	89.952896      	91.90072       	84.3599        	
91.65195       	92.803925      	93.68822       	94.00746       	94.56105       	93.36081       	91.85329       	95.78911       	95.41698       	88.84823       	94.39473       	96.71606       	91.231186      	92.096855      	95.37794       	92.447136      	93.67252       	94.20521       	93.524506      	95.422295      	90.90978       	92.28154       	98.6473        	91.41566       	90.58388       	98.137215      	91.05054       	91.1019        	93.931404      	84.18274       	88.41208       	89.49097       	87.897964      	90.44737       	90.50782       	86.32155       	94.35372       	89.64697       	85.610756      	96.74291       	92.979866      	86.692375      	92.980316      	92.996086      	89.87788       	92.31178       	92.71188       	91.206505      	92.24889       	89.822495      	91.91485       	95.52991       	88.82007       	91.33652       	95.53598       	90.265205      	91.51369       	95.110435      	90.89689       	91.51674       	102.840294     	102.14591      	97.13506       	98.2425        	99.2458        	95.403885      	95.86588       	100.25982      	97.37582       	97.39757       	96.901474      	95.437256      	98.206985      	96.41108       	93.817986      	99.46518       	96.77235       	90.35851       	97.755         	100.067856     	90.43401       	96.08586       	98.92423       	90.02075       	95.87345       	98.0214        	94.154045      	96.73077       	95.670235      	93.42984       	91.15489       	85.8313        	88.05378       	94.19056       	87.314865      	87.26356       	95.33622       	90.27219       	90.13492       	92.283134      	
94.90302       	95.66737       	91.38834       	90.04937       	92.952065      	94.17299       	91.617294      	93.87104       	91.97782       	90.99798       	96.09162       	92.53326       	88.96719       	94.8471        	93.21146       	90.3149        	96.27084       	94.926926      	88.440216      	93.11731       	98.54668       	90.468124      	93.39376       	94.961105      	93.47921       	95.34724       	91.951775      	95.01798       	93.07917       	82.04611       	85.24971       	92.17557       	88.1695        	84.685425      	92.61008       	90.89144       	85.79736       	91.34767       	93.04538       	89.24666       	90.10617       	91.35807       	91.65658       	92.79964       	91.1189        	93.32104       	90.28887       	87.83101       	95.155266      	96.15894       	88.102875      	93.00183       	96.40529       	91.05988       	90.05631       	93.76806       	95.7693        	91.170494      	89.52077       	94.792076      	102.70055      	98.89746       	97.1136        	104.00335      	97.77919       	92.95871       	101.45535      	100.93294      	94.633896      	95.6477        	99.29178       	98.127365      	93.64992       	97.2009        	97.85192       	95.96651       	94.64113       	98.089775      	97.593185      	91.86238       	94.90099       	100.773        	95.183975      	94.07777       	98.45597       	97.7412        	95.04151       	97.49352       	98.8396        	98.06881       	94.177216      	85.86879       	94.468735      	92.689545      	86.69559       	95.72997       	94.81322       	86.90007       	95.02694       	97.60315       	
93.072014      	93.16993       	94.21241       	94.25342       	92.19649       	90.15145       	93.562584      	96.23504       	89.96635       	92.01916       	95.78411       	89.314606      	90.36939       	97.9709        	90.17171       	91.4117        	94.57496       	90.863556      	93.407974      	94.14517       	92.348526      	92.06349       	93.80994       	89.67546       	95.32746       	93.33377       	91.24107       	95.4496        	90.50276       	84.01987       	88.0664        	86.97199       	86.1429        	87.669846      	90.03346       	89.28598       	89.90039       	88.42531       	87.67149       	90.90965       	90.611565      	86.90892       	92.58602       	90.555626      	86.88521       	91.93831       	91.729485      	88.912994      	91.62906       	89.47757       	85.11746       	93.542885      	94.5295        	87.00098       	94.38803       	92.47347       	88.359116      	92.306694      	89.1044        	89.99171       	100.7813       	97.56869       	93.697525      	100.725174     	96.00585       	92.48706       	99.45523       	94.38913       	91.05432       	98.53874       	95.67102       	90.38082       	96.02937       	92.96411       	91.854095      	96.966354      	93.30695       	92.69209       	95.6795        	92.51696       	93.2863        	96.7751        	91.50538       	92.02218       	95.88182       	91.597176      	93.885254      	96.60424       	93.42623       	93.50432       	89.669624      	85.7463        	87.77099       	87.76636       	89.696686      	89.104355      	88.287506      	90.72745       	90.998566      	91.77775       	
91.9065        	92.7296        	92.73885       	90.654625      	92.82591       	96.52884       	94.71042       	92.03741       	95.364555      	94.01442       	92.50614       	94.523285      	93.18087       	94.8136        	94.021935      	91.10592       	94.245445      	96.93485       	92.579155      	92.09911       	95.874565      	94.39214       	91.84197       	96.468025      	93.83566       	93.76782       	94.204056      	95.41835       	88.33536       	84.779526      	86.43331       	90.221115      	88.27697       	89.38734       	90.98803       	89.84673       	87.72752       	90.93617       	93.483894      	87.28942       	92.15502       	92.0126        	88.74899       	93.290886      	92.41776       	90.05815       	91.87932       	87.71919       	86.91626       	98.01458       	90.52117       	87.84742       	96.49659       	91.16931       	88.169         	94.43173       	89.18873       	90.35022       	92.6119        	87.43808       	96.60861       	102.16143      	93.83866       	96.16088       	100.11527      	90.505684      	94.78047       	98.08012       	91.79072       	93.82089       	96.45703       	91.89929       	94.38545       	96.73371       	90.08168       	95.16509       	93.40018       	90.67632       	96.939896      	94.7991        	90.22689       	94.293076      	96.82878       	91.34977       	91.7529        	96.689926      	92.37697       	91.89969       	95.38281       	94.95703       	88.15105       	85.221596      	82.68949       	90.54786       	90.997284      	86.21302       	91.19699       	91.69645       	87.91125       	91.12854       	
96.01659       	95.677086      	93.06175       	90.71536       	91.95686       	96.82898       	94.94762       	91.55985       	94.4228        	93.21424       	93.36073       	94.09274       	92.61162       	94.128815      	92.41796       	90.23337       	93.28925       	96.28614       	92.67392       	91.36788       	92.936844      	94.33566       	92.88815       	92.478325      	93.90965       	93.84993       	92.558464      	94.26838       	92.01209       	86.148766      	88.094475      	87.29048       	85.34551       	86.99881       	91.408844      	90.32128       	89.6637        	90.62637       	89.92502       	91.875656      	89.22664       	90.08794       	92.53908       	89.9353        	86.407974      	92.67795       	94.08507       	88.01782       	90.073296      	94.10074       	89.78695       	90.80226       	91.15858       	91.98162       	89.51855       	89.61694       	91.87411       	92.817856      	87.25342       	88.861176      	101.95279      	98.79283       	94.326294      	99.368805      	98.256516      	94.08096       	96.63177       	98.69952       	97.0642        	94.24882       	93.7018        	98.65581       	95.79941       	92.5529        	95.87333       	97.03002       	90.1966        	93.78816       	100.21256      	93.87206       	93.47701       	95.653854      	93.91861       	97.12898       	92.22491       	95.2997        	98.61693       	93.22414       	92.95716       	101.515495     	85.2838        	86.31298       	92.71049       	91.16068       	89.403336      	91.65248       	92.10641       	91.26912       	90.43786       	92.11009       	
96.62008       	93.03466       	91.48097       	93.3162        	96.76844       	94.7306        	92.22387       	95.29577       	93.88826       	92.79799       	95.90335       	94.14818       	90.417274      	93.323074      	95.316475      	94.60206       	95.28284       	95.3506        	93.46725       	94.13425       	95.736         	91.161934      	96.771         	95.89228       	91.78726       	94.697495      	97.895454      	96.129135      	89.77105       	87.34196       	87.088554      	92.70386       	87.601166      	90.729774      	91.93151       	89.305084      	90.30888       	93.86632       	90.51396       	89.04061       	95.0431        	90.20662       	91.80716       	95.00636       	90.56955       	90.6027        	92.74137       	93.82594       	93.785675      	92.1445        	91.49428       	94.253296      	91.429855      	90.273926      	94.17299       	95.477325      	90.95859       	89.83107       	91.667206      	96.41056       	96.05559       	98.63604       	101.32516      	95.80628       	95.52641       	99.85106       	97.39161       	94.00915       	96.24098       	96.95125       	97.22287       	96.81082       	94.264755      	93.93063       	93.66673       	97.410484      	93.059784      	95.39436       	94.706985      	92.91761       	95.48378       	94.823         	93.957115      	97.102715      	95.13527       	90.608185      	95.88931       	98.16002       	91.17787       	95.14819       	86.54052       	83.85802       	90.417595      	90.525375      	88.21289       	90.932976      	86.733734      	87.182365      	95.306526      	89.04742       	
94.927895      	95.92119       	91.82307       	88.87273       	92.294395      	96.985306      	93.15898       	89.893585      	94.85716       	91.862305      	89.78923       	95.60765       	93.99391       	91.82743       	93.16467       	91.53531       	95.5075        	92.69219       	92.23508       	93.904305      	94.30903       	91.159546      	92.45853       	96.59516       	92.278564      	92.42989       	94.5618        	94.2019        	87.83362       	86.82769       	86.52706       	87.07845       	87.477165      	89.47441       	88.8114        	88.18092       	89.82516       	89.1926        	88.109695      	91.24773       	91.667694      	91.090645      	89.48784       	85.95157       	94.05595       	93.97855       	88.38377       	92.35714       	95.50988       	90.60268       	89.272896      	93.06986       	92.957466      	91.782234      	89.69565       	92.21449       	92.01059       	90.44371       	89.099396      	93.55541       	98.891655      	95.79422       	100.53303      	100.62118      	95.485275      	97.04283       	97.84749       	94.580414      	96.011955      	95.39555       	94.14334       	96.59544       	92.903725      	93.67464       	98.4949        	92.796715      	91.559044      	96.16549       	92.52508       	93.22934       	95.69123       	94.701035      	91.03749       	90.98764       	96.019424      	95.63615       	91.63769       	95.07052       	96.691025      	92.03341       	85.423134      	88.06666       	86.59501       	87.96276       	87.18323       	88.23949       	93.67362       	84.92955       	89.32873       	93.939735      	
99.47067       	98.42754       	92.12603       	87.398506      	93.7981        	98.68245       	89.690506      	89.29351       	100.01783      	90.86431       	90.0442        	97.75459       	89.91043       	91.90699       	98.24195       	89.93568       	92.109505      	95.76857       	88.965485      	93.3757        	97.16545       	88.43118       	92.500725      	95.70332       	90.60509       	94.70927       	94.83041       	93.023384      	89.96955       	83.73596       	86.13008       	90.99482       	86.95053       	87.76095       	91.0256        	87.65101       	87.66734       	90.80685       	89.63172       	90.92909       	89.03495       	88.59932       	93.16576       	91.14331       	88.11476       	92.22165       	90.82096       	88.993195      	93.32469       	89.8699        	91.153984      	91.79127       	89.494125      	91.76466       	93.2643        	89.81389       	91.60152       	92.17199       	87.991875      	94.68869       	102.68531      	97.727646      	97.19206       	94.24072       	98.492065      	99.48259       	94.022095      	96.62254       	98.95873       	93.3009        	94.18657       	97.03043       	94.9408        	93.662315      	94.8214        	91.94654       	93.61          	96.56558       	92.60836       	95.81092       	95.71656       	90.207565      	96.678055      	96.2745        	91.08886       	95.2666        	96.135376      	90.702255      	95.521034      	97.89987       	86.7054        	87.39271       	85.33727       	89.01777       	91.039276      	85.78582       	90.591156      	92.73743       	87.28836       	89.299545      	
97.812614      	93.79772       	90.889366      	91.7309        	97.50366       	97.28946       	87.49684       	94.73376       	99.351036      	90.281815      	92.1117        	97.91545       	88.73523       	95.68269       	97.03016       	88.993256      	95.98874       	95.07326       	88.90109       	97.810005      	97.03181       	89.924484      	96.56367       	94.24151       	91.8564        	99.75263       	95.47168       	93.283455      	97.04202       	87.181526      	84.77917       	91.54585       	90.29628       	90.495514      	91.069145      	86.48188       	92.33943       	93.657455      	87.64844       	93.1543        	96.593544      	87.76502       	92.03759       	96.96949       	90.0956        	92.316124      	94.04955       	88.77323       	94.662025      	95.273994      	91.219086      	95.24151       	93.52396       	89.65895       	95.591095      	91.33509       	90.05335       	94.566696      	88.97847       	87.95719       	101.4307       	101.88631      	96.0255        	99.661835      	98.419464      	98.08138       	97.818695      	97.55657       	96.42627       	96.52089       	94.27241       	95.86982       	98.37808       	92.8824        	93.17835       	97.63351       	94.08255       	93.47991       	96.22523       	94.809494      	92.32034       	93.899055      	95.264         	94.63065       	95.13265       	90.4069        	92.60628       	101.04187      	91.834724      	93.66258       	90.27884       	84.18614       	85.85802       	90.306595      	88.6925        	91.17807       	88.873505      	87.934044      	94.127945      	91.1372        	
98.79846       	95.97061       	91.78153       	90.37162       	95.04286       	95.6536        	88.73734       	95.773056      	96.71076       	86.80602       	92.54388       	99.14317       	89.67786       	91.997574      	96.87959       	89.046646      	94.38785       	95.48693       	92.348236      	93.88207       	93.43257       	92.21106       	96.99846       	93.80501       	88.90469       	96.418655      	96.935265      	90.58464       	90.27257       	87.12104       	83.31441       	90.67212       	90.86529       	87.71293       	91.214035      	87.833176      	88.29847       	93.50728       	87.51087       	89.1357        	94.753265      	88.353485      	89.1032        	96.18161       	89.94615       	88.651855      	94.320274      	89.52876       	91.23811       	95.46534       	91.75793       	91.268845      	91.77276       	92.45761       	93.94628       	92.6007        	89.78234       	94.09592       	91.81662       	89.77711       	102.83288      	102.561        	98.455826      	95.50276       	97.17226       	100.295784     	98.30285       	94.07337       	99.60999       	98.437904      	94.24094       	94.271484      	97.55119       	97.31909       	93.896065      	95.03549       	95.51712       	95.71784       	93.81201       	95.14706       	97.707886      	93.18844       	92.19782       	97.71811       	94.98675       	92.02637       	96.70738       	94.868454      	94.083725      	98.656784      	88.21491       	88.95851       	86.51784       	86.93754       	92.72411       	89.47535       	86.84057       	93.39932       	90.16252       	88.273186      	
93.201126      	95.241776      	98.1007        	97.997505      	94.04138       	94.017265      	97.74995       	94.07805       	93.86659       	97.63712       	93.64503       	94.01692       	98.623795      	93.84655       	93.71728       	95.121506      	90.184494      	97.1266        	96.84543       	91.54066       	95.96879       	97.205574      	91.423965      	96.4983        	94.63542       	92.802284      	97.540474      	94.8788        	89.38217       	90.91321       	85.47018       	88.76449       	92.93075       	86.30045       	88.23924       	93.81385       	89.453         	88.48371       	93.39871       	87.9901        	89.35469       	94.131294      	89.35887       	91.23842       	90.434235      	90.506874      	93.2898        	92.799614      	89.19081       	93.4843        	93.04369       	88.76488       	93.42245       	94.20244       	90.88273       	90.69413       	87.98455       	93.26659       	92.8466        	90.93196       	99.16008       	102.16119      	95.71512       	97.29127       	98.469025      	95.083954      	96.83035       	94.92115       	94.073235      	97.33698       	95.81188       	93.90995       	96.88737       	93.50621       	94.18102       	96.480194      	95.830154      	92.156265      	96.20224       	94.17419       	93.62408       	96.68026       	94.05997       	93.141594      	95.09415       	93.6768        	96.49276       	95.05083       	95.19139       	95.90697       	87.220505      	86.03398       	90.899345      	89.8004        	87.55127       	88.103935      	93.4769        	90.26039       	89.45776       	92.73335       	
98.899055      	98.852036      	94.86982       	90.39491       	92.86768       	99.776726      	94.49781       	88.89413       	96.489914      	95.70474       	92.03741       	93.78155       	91.9828        	94.52812       	94.40856       	91.607506      	94.04009       	96.58813       	90.14929       	92.91102       	97.969154      	91.851974      	91.94217       	94.2452        	92.075676      	96.28784       	95.56583       	95.24212       	88.56263       	84.70023       	85.69759       	88.596115      	87.17721       	88.43591       	90.38111       	85.46141       	89.24293       	92.637505      	87.82286       	90.016075      	91.536674      	87.54802       	91.83173       	91.818695      	87.55102       	92.56452       	90.500336      	88.69823       	93.986084      	90.328476      	88.443535      	91.57299       	90.57948       	89.59764       	93.419754      	90.505905      	86.466705      	90.90199       	91.359604      	87.96549       	97.66472       	100.16455      	96.59892       	96.75654       	95.67136       	95.99388       	99.083206      	95.70666       	91.999565      	96.898224      	96.590004      	92.00046       	94.14254       	98.15328       	91.83243       	92.73129       	95.624565      	93.85118       	96.4359        	95.480354      	90.07418       	94.179115      	97.90613       	92.286026      	94.544365      	97.009926      	92.07924       	94.048996      	95.15024       	94.25229       	96.43743       	84.846924      	84.95661       	90.440056      	89.37688       	85.77942       	91.13252       	90.80872       	85.87291       	91.26081       	
97.00786       	96.517426      	93.35277       	92.317085      	96.02928       	95.93262       	87.83034       	95.50563       	98.05822       	88.6604        	93.004585      	97.636444      	89.160385      	94.027596      	96.00745       	91.56877       	92.750885      	92.78003       	90.95471       	95.47529       	93.31664       	89.12403       	96.21678       	91.485954      	90.2299        	97.20578       	93.684364      	91.68892       	84.50933       	81.94382       	91.52117       	87.8888        	84.708855      	92.403         	88.59376       	85.069405      	92.79378       	88.42866       	88.29496       	92.400475      	86.955185      	88.04578       	93.714714      	89.63345       	87.46815       	92.41163       	87.96414       	90.56005       	92.40461       	89.801216      	90.01268       	92.60475       	90.56904       	92.472046      	90.94554       	88.44768       	91.903885      	91.73094       	88.139175      	92.1259        	99.70927       	97.00106       	98.417404      	99.89526       	94.78393       	96.519844      	98.00279       	92.166214      	97.79585       	97.98739       	92.34452       	97.07279       	91.785835      	89.7768        	101.50975      	94.24447       	90.325264      	100.25469      	96.15789       	90.31048       	98.316986      	92.36857       	93.4375        	97.88403       	90.77129       	91.7977        	99.71081       	91.24559       	93.10985       	99.66458       	87.20995       	90.05964       	88.395905      	83.79452       	88.87254       	90.06462       	85.05787       	91.12012       	90.887726      	84.82209       	
93.147995      	95.36372       	96.83857       	97.55209       	96.12653       	95.24629       	95.472206      	95.169815      	96.527824      	96.99824       	94.919106      	96.83923       	97.89603       	93.7553        	97.187675      	99.664925      	97.61857       	97.08137       	97.88989       	98.46528       	98.67607       	98.935074      	98.40121       	100.362785     	98.00031       	97.821625      	102.57114      	101.99039      	95.84087       	90.455315      	96.74743       	95.06774       	92.84869       	96.93648       	98.26863       	94.24207       	94.83208       	99.17555       	97.6528        	98.494514      	97.76815       	95.37819       	99.92675       	98.02819       	94.0304        	100.82213      	99.75117       	94.76302       	99.58348       	99.547554      	96.42095       	101.05516      	98.80782       	93.255775      	98.788055      	101.95531      	94.82071       	98.422295      	98.37432       	95.766716      	104.071335     	105.85424      	103.8855       	107.15236      	102.670334     	99.207855      	104.52572      	103.11617      	98.02531       	102.537544     	101.62529      	95.57818       	99.894394      	102.48421      	97.73897       	98.67781       	99.97644       	95.63893       	97.9644        	98.71573       	94.71366       	98.36858       	95.42238       	92.40449       	99.36691       	96.77467       	91.006424      	98.329025      	94.28136       	89.82768       	96.37695       	83.45756       	87.437836      	91.81983       	85.65052       	89.31456       	89.609055      	85.42681       	91.24977       	90.75548       	
94.86634       	92.18578       	90.67423       	91.74211       	94.39384       	95.35312       	90.88          	92.39388       	95.26462       	94.76017       	92.67859       	94.04394       	90.35859       	90.58283       	96.21552       	92.80028       	92.12627       	94.37675       	92.19364       	92.3248        	93.63055       	88.414215      	93.064644      	93.19783       	84.808754      	90.47201       	95.08439       	88.52353       	84.188324      	82.61975       	80.89487       	83.695015      	84.75969       	82.617874      	83.740486      	83.23656       	84.7574        	87.92569       	82.01318       	84.103745      	88.32274       	85.60904       	83.44673       	89.443375      	86.97768       	84.52269       	87.75818       	88.596115      	87.970024      	88.4594        	86.93896       	87.92557       	92.62678       	85.0294        	90.17219       	92.12465       	86.58501       	89.33127       	91.69254       	89.17072       	94.4098        	100.76802      	96.9276        	97.13801       	100.43859      	97.491295      	97.85238       	96.879425      	95.83979       	100.35542      	96.63364       	96.75148       	99.00117       	95.72034       	93.41444       	101.522736     	98.9283        	94.78901       	100.219025     	97.44788       	97.61144       	99.263336      	98.72474       	99.99263       	101.52027      	95.69178       	100.46883      	105.438705     	97.47412       	100.4829       	96.22014       	89.651505      	95.59977       	95.13594       	94.85945       	96.600494      	96.63002       	99.42516       	99.147675      	95.82785       	
85.266884      	88.313         	91.02274       	90.8152        	86.85646       	86.24605       	90.597115      	90.34046       	86.96141       	88.17038       	90.106476      	90.22713       	87.5714        	87.61349       	88.756065      	91.301216      	87.091644      	89.03254       	92.67565       	86.55708       	86.916374      	92.522354      	89.79961       	87.87188       	90.01114       	88.78095       	90.40488       	92.39444       	85.19473       	84.40292       	82.46049       	81.59703       	88.498856      	87.4375        	84.04452       	86.29729       	83.092575      	88.1245        	89.20671       	86.28741       	89.347496      	90.41912       	86.51533       	87.68165       	89.81387       	88.70633       	89.34427       	89.31072       	86.59929       	90.55484       	90.8249        	86.391655      	91.85472       	89.302284      	85.78517       	92.933914      	89.8012        	86.773895      	90.72237       	89.04113       	93.62842       	101.6997       	96.138756      	94.24165       	97.02666       	91.59114       	97.44039       	97.06625       	92.207924      	94.83333       	95.42482       	91.067665      	94.837845      	97.730095      	90.90953       	92.38961       	94.30458       	94.47782       	91.29963       	92.858696      	92.58534       	92.05592       	91.67573       	92.66838       	94.93828       	93.69599       	88.42254       	91.757774      	98.212006      	93.254135      	87.07298       	88.34828       	83.63436       	84.49287       	87.73421       	87.33733       	88.22867       	86.31246       	84.59026       	89.53515       	
93.82076       	95.63561       	94.62391       	92.15677       	91.14094       	95.875824      	97.337456      	92.010666      	90.20566       	97.58644       	92.40317       	89.65311       	95.73539       	94.5166        	90.439285      	93.0569        	96.22347       	94.34383       	90.60432       	92.91393       	95.52248       	94.91151       	89.99055       	95.21274       	95.92364       	89.82332       	93.76664       	96.91441       	94.29466       	83.752495      	86.742485      	89.873405      	84.807236      	87.33232       	90.764595      	88.77021       	86.83064       	90.90112       	92.53015       	87.710335      	87.928955      	91.129         	91.131874      	90.557526      	91.15673       	89.05944       	89.44734       	93.65325       	92.662964      	90.07504       	93.82405       	91.89948       	91.80014       	91.325195      	91.08344       	95.09071       	93.82063       	89.13191       	91.942184      	95.736         	97.49633       	100.44107      	105.262825     	99.69212       	97.11994       	102.0169       	101.78493      	96.8287        	97.77739       	100.005974     	99.06813       	97.259796      	97.79687       	98.959145      	97.332405      	95.37901       	101.03283      	99.021935      	95.7246        	96.6482        	96.298996      	100.61777      	94.91649       	95.42689       	99.77403       	94.76301       	91.987686      	102.465294     	99.153244      	94.173965      	95.760345      	88.90086       	87.41828       	89.51708       	89.31224       	90.609055      	87.25511       	78.35348       	84.08592       	89.97275       	
95.60451       	94.54617       	93.15861       	91.67387       	93.85833       	96.32232       	91.31635       	90.08833       	96.85462       	93.49879       	91.21398       	93.9731        	93.8083        	91.00256       	95.13124       	92.05246       	93.21321       	92.52445       	89.77335       	93.82251       	94.09236       	92.11702       	91.06192       	90.73753       	94.33383       	94.97157       	92.115204      	92.74149       	96.03169       	82.61162       	82.895096      	86.97952       	88.649536      	87.04295       	85.216484      	86.962326      	92.00068       	84.40195       	86.770546      	91.27852       	86.637505      	87.24666       	92.92184       	87.91955       	84.177216      	92.1832        	89.70219       	87.36901       	91.27166       	88.9995        	89.51076       	90.092804      	90.30671       	92.63314       	92.78833       	85.675674      	91.42939       	94.4368        	87.80627       	88.42587       	100.37252      	96.6148        	96.959145      	99.01553       	95.20124       	96.097305      	94.89861       	95.092476      	98.68202       	95.98931       	90.07337       	92.87697       	100.63042      	91.71866       	92.8158        	99.055374      	93.24328       	91.59514       	96.36621       	92.53552       	93.68305       	96.62387       	91.14593       	94.416954      	95.83977       	92.330246      	93.09879       	95.38211       	91.810394      	91.80264       	96.44489       	93.062584      	94.78759       	95.56881       	91.20318       	90.81214       	83.68594       	78.11789       	78.58354       	81.392265      	
89.366585      	94.1113        	98.740585      	97.6726        	91.47449       	90.670364      	96.96667       	92.04406       	88.22767       	95.50928       	94.367355      	92.27115       	95.677765      	90.058914      	91.02129       	98.94416       	87.630806      	92.49824       	98.1988        	89.2804        	91.817665      	97.82525       	92.32807       	91.413864      	95.84218       	91.170334      	92.65487       	96.430756      	93.291504      	94.36182       	90.12589       	86.6691        	97.24256       	97.019485      	89.140045      	96.65469       	94.79155       	90.33907       	92.77238       	94.64051       	93.42274       	96.70162       	93.409676      	93.06136       	98.416626      	93.59954       	93.24684       	97.097084      	94.1007        	93.06027       	95.10635       	95.28584       	91.19392       	94.19222       	95.17691       	94.0231        	93.872444      	91.476715      	93.625374      	94.26925       	91.63874       	93.87325       	94.381035      	90.50955       	91.71465       	96.17672       	91.94233       	91.2854        	95.06174       	90.469444      	92.93042       	95.95283       	89.6198        	94.346725      	93.324104      	86.77694       	95.81002       	96.499596      	88.78682       	95.37418       	94.93851       	88.509476      	97.49848       	93.238266      	91.34778       	96.03233       	91.13488       	91.32071       	97.98559       	94.01122       	88.19056       	95.90674       	94.91147       	89.70781       	96.83858       	93.86464       	90.094025      	86.188194      	83.9418        	87.811676      	
98.220215      	97.304924      	94.75045       	91.27743       	92.38771       	99.5134        	98.19941       	91.223785      	96.33664       	99.318306      	92.2472        	93.81624       	99.60433       	94.45421       	93.28099       	94.43788       	95.685234      	98.70519       	94.621414      	95.18834       	97.764336      	95.09362       	93.47523       	98.2639        	96.23681       	93.58974       	95.67244       	95.20561       	96.42714       	96.94038       	97.56064       	94.85053       	95.76502       	97.43983       	98.14617       	94.98803       	97.62501       	97.060745      	95.73571       	97.55986       	95.89452       	99.36536       	98.88396       	93.50228       	94.97599       	99.2634        	98.89014       	95.56344       	100.355225     	97.744125      	95.87851       	99.07059       	96.40733       	97.97856       	98.856636      	94.922966      	96.857185      	100.424774     	96.50239       	97.35556       	98.70853       	96.55306       	99.295845      	98.224174      	96.21972       	97.40941       	97.4681        	96.78979       	99.026405      	99.561455      	95.39588       	97.94816       	98.54143       	97.303696      	98.42982       	97.70802       	96.62389       	92.6316        	98.56241       	101.9547       	95.19885       	98.06352       	100.636505     	98.47435       	97.28199       	97.68924       	99.07054       	98.941864      	96.461494      	94.49061       	101.620804     	99.27507       	94.69191       	99.39621       	98.902016      	95.66654       	99.381714      	99.90397       	97.413574      	96.82911       	
91.52544       	89.67048       	91.17095       	95.90614       	95.96558       	88.60515       	89.48075       	97.09344       	92.647964      	87.89458       	91.33004       	93.94864       	90.052124      	89.383095      	90.85196       	90.74556       	88.759445      	87.660515      	91.82316       	91.75314       	85.851944      	86.29332       	93.898186      	87.95735       	86.05294       	91.05932       	89.73518       	84.901855      	87.99283       	90.17741       	87.18855       	87.10838       	86.55014       	88.03133       	90.508415      	86.29887       	89.14845       	87.66188       	85.00362       	87.1378        	88.96888       	84.35556       	86.39591       	87.21595       	84.81733       	86.94771       	86.58459       	87.09562       	85.640045      	82.25569       	84.267975      	88.79064       	84.66119       	83.89027       	88.54879       	83.60898       	83.15442       	86.17821       	83.1495        	83.82295       	85.62296       	81.459785      	85.00941       	85.88929       	82.20428       	86.43392       	84.665375      	81.22203       	87.98591       	86.68469       	81.74855       	87.49316       	87.2243        	83.65687       	87.23983       	87.30683       	84.838974      	86.65581       	83.83395       	86.273315      	91.23694       	86.08727       	85.29113       	89.41843       	85.62906       	88.37985       	87.50456       	88.55268       	88.73915       	87.399796      	87.37352       	90.54199       	88.87378       	84.925255      	90.39782       	89.583824      	86.35802       	89.87028       	90.42795       	86.7055        	
94.78792       	95.76077       	96.060585      	94.55173       	93.07059       	95.5225        	98.88245       	93.11374       	93.33393       	100.189095     	92.45612       	91.03671       	100.48045      	95.72865       	93.80099       	96.75496       	91.73233       	94.700516      	99.338875      	92.95411       	95.813805      	99.62371       	92.671005      	93.62315       	100.069954     	93.3549        	95.57024       	99.31808       	91.27714       	95.619194      	101.53189      	91.711006      	97.36007       	100.935265     	91.182526      	97.95329       	101.13364      	93.24772       	96.981125      	97.12141       	94.53817       	98.416595      	96.8166        	93.73404       	99.83602       	96.39657       	92.99161       	100.864586     	97.643135      	92.375435      	97.754486      	95.22453       	95.15264       	99.47301       	96.93645       	95.512695      	98.607635      	95.499054      	97.17966       	97.61748       	97.03526       	96.41713       	96.65398       	96.08825       	97.972015      	99.13368       	95.92904       	97.08183       	97.70342       	98.92065       	96.581894      	97.566826      	97.9783        	97.65194       	95.27531       	100.08594      	100.64074      	98.32042       	99.37788       	95.258         	98.40524       	103.364555     	96.79244       	99.29618       	102.49141      	98.44889       	96.508316      	101.14779      	99.748116      	101.269905     	99.1908        	96.81478       	101.50814      	99.2413        	97.894196      	100.52673      	102.74328      	96.14432       	99.3492        	103.88595      	
90.65053       	95.5391        	95.100815      	91.22855       	87.54355       	91.99918       	93.987045      	87.289024      	91.94109       	94.67606       	86.76029       	93.058876      	95.51476       	88.83135       	93.11963       	91.9113        	87.51468       	95.32545       	92.070724      	87.666695      	95.511795      	92.65238       	86.21648       	96.72538       	94.216446      	89.62451       	95.00827       	89.063995      	91.52164       	98.50241       	90.34281       	91.037834      	96.94779       	91.56262       	90.721306      	95.5453        	91.52579       	91.28487       	94.425125      	87.66073       	91.06209       	95.77201       	88.535614      	92.4829        	95.301834      	86.85344       	94.7304        	94.905106      	88.6466        	92.47416       	93.75545       	88.52863       	93.292854      	95.34513       	88.20028       	91.40848       	93.77154       	90.13427       	91.94702       	91.740654      	89.73782       	91.74559       	91.417694      	89.83203       	92.00691       	91.00764       	86.61004       	92.524414      	94.213         	89.47029       	91.549034      	90.144966      	90.53293       	93.96807       	88.801094      	91.131424      	93.76283       	88.251236      	89.51356       	93.84604       	90.467026      	90.18532       	91.689835      	85.94377       	89.90919       	93.54907       	89.332695      	91.65717       	92.25204       	89.691216      	93.481865      	89.543175      	90.241325      	93.16645       	90.219475      	88.07075       	94.22552       	93.102135      	88.11548       	92.30099       	
93.33388       	94.84665       	95.67181       	95.084885      	93.68287       	94.10011       	95.5558        	92.70577       	93.741196      	95.45131       	90.645805      	93.28523       	99.0324        	93.54632       	92.53809       	96.44227       	94.927055      	93.66341       	94.24984       	93.28011       	96.37364       	93.07012       	91.02725       	97.249214      	95.47713       	91.32549       	94.02909       	96.05281       	92.74128       	94.5087        	94.50398       	94.58479       	94.00383       	93.664536      	95.795334      	96.52847       	93.87732       	92.83077       	95.54925       	95.65529       	91.62121       	94.97676       	96.429         	91.122406      	93.31908       	95.26154       	93.78304       	94.44493       	92.674774      	89.45633       	94.99968       	95.8241        	91.37135       	95.36728       	93.158554      	92.408676      	94.49428       	92.94858       	93.070145      	95.469864      	91.059326      	91.53563       	97.192986      	93.38595       	91.55872       	94.12654       	91.811226      	93.29068       	92.32134       	93.91603       	92.680855      	92.666275      	92.38384       	94.658844      	93.72435       	88.90209       	93.7065        	94.65817       	91.3979        	92.87366       	94.40549       	90.994         	92.80476       	95.34097       	92.28909       	92.40693       	94.48079       	90.92569       	92.304146      	96.37907       	92.8494        	94.54857       	94.16957       	90.146866      	95.938095      	95.68873       	91.18625       	94.36421       	95.56474       	86.86812       	
91.42976       	90.71041       	91.05647       	94.11899       	95.35009       	92.35631       	93.03126       	95.18077       	89.55436       	93.009346      	94.59036       	91.63585       	91.937294      	95.11563       	90.8211        	92.162445      	95.750885      	91.8005        	94.04655       	92.12753       	85.06635       	96.85522       	95.29188       	88.14844       	94.86227       	95.61056       	89.485916      	94.16846       	95.16682       	90.806564      	96.64005       	90.2731        	89.615845      	98.987495      	92.126495      	89.74559       	96.38728       	94.58174       	89.409615      	95.789024      	94.55608       	90.37401       	93.969765      	93.22859       	94.40495       	94.32043       	89.81129       	92.68726       	96.79438       	89.90179       	92.17948       	95.42276       	89.847046      	90.36386       	95.40633       	92.92775       	90.96585       	92.34944       	91.51787       	95.07234       	92.59703       	89.930336      	95.38749       	91.60592       	90.00872       	95.19742       	94.08874       	89.290886      	92.67003       	92.64966       	90.679276      	94.27002       	94.16513       	90.16141       	88.77084       	95.30565       	94.66673       	91.30155       	91.771034      	93.78465       	93.94748       	89.11656       	91.15519       	95.68941       	93.382324      	88.997185      	93.53499       	94.60997       	90.4617        	90.73971       	93.593155      	92.68891       	88.816154      	91.94689       	96.0531        	92.79195       	88.912445      	94.48371       	94.10522       	91.34492       	
88.64992       	94.702774      	98.289185      	96.8757        	91.7788        	90.49399       	95.21175       	94.3702        	91.53458       	95.478836      	91.225586      	91.870964      	96.72124       	90.05793       	92.666885      	95.69652       	88.51854       	92.27938       	97.66695       	89.25578       	92.698784      	97.01309       	90.46514       	93.705414      	97.23642       	91.46441       	92.2401        	94.41896       	92.67409       	95.20688       	93.95912       	91.56327       	93.89006       	94.642296      	91.35755       	96.12203       	95.105965      	90.38133       	92.6773        	97.50811       	92.05786       	91.6379        	96.24611       	92.93155       	91.99439       	94.884384      	93.85802       	93.23782       	93.06018       	91.68319       	93.84831       	95.59078       	92.5754        	94.25072       	90.82364       	91.541374      	98.02574       	91.43486       	91.49615       	94.77259       	93.87235       	90.635284      	91.69317       	94.69145       	93.078575      	92.14522       	91.009285      	93.584526      	94.62851       	89.99571       	93.22883       	95.66371       	90.331696      	90.59649       	96.227295      	92.56526       	90.26489       	93.25788       	92.68774       	94.21069       	90.717445      	92.392296      	93.87435       	91.342476      	91.17575       	95.7243        	93.82094       	89.21842       	93.64777       	93.41049       	91.41471       	93.25389       	92.6706        	89.55756       	90.80005       	95.67193       	92.29806       	91.55742       	93.52583       	92.27149       	
96.11171       	95.8473        	89.17708       	86.334335      	93.014725      	99.19176       	90.16162       	91.270134      	96.304985      	90.80321       	91.62469       	97.83876       	89.051216      	93.42891       	95.28173       	88.83299       	94.44099       	96.333534      	89.55778       	93.98735       	95.971016      	89.3484        	95.181145      	97.12435       	90.56246       	90.599174      	92.84129       	94.80202       	95.18343       	92.13863       	94.04678       	96.93017       	92.1856        	90.02876       	96.82963       	96.60449       	91.03704       	94.93614       	94.58873       	93.51447       	95.49703       	93.237335      	95.64877       	94.711716      	91.18196       	95.25465       	97.25941       	91.96575       	92.27525       	96.98967       	92.49682       	92.5775        	95.76604       	93.78936       	92.99983       	92.068375      	94.20558       	95.38827       	93.46082       	93.06658       	93.2539        	94.39699       	93.383514      	93.7941        	92.57007       	93.88268       	92.12183       	91.89289       	94.7286        	92.01477       	93.9126        	93.448944      	87.091034      	93.67685       	97.27387       	90.020905      	91.10889       	96.183395      	91.45073       	90.68697       	93.30176       	93.81449       	94.38957       	91.15693       	91.395515      	93.437744      	93.03134       	90.1172        	94.362564      	95.29923       	88.67888       	91.998566      	95.65792       	91.445366      	90.052734      	94.870125      	90.404526      	93.01415       	93.413666      	90.637314      	
90.28737       	95.8693        	96.38852       	91.01112       	87.09004       	96.21989       	97.07023       	89.3874        	94.901726      	95.24899       	88.71263       	97.59142       	94.01834       	89.04057       	97.5922        	93.26427       	88.24395       	96.91284       	95.54911       	90.024734      	95.430176      	94.009415      	90.41292       	97.89339       	91.2758        	93.40149       	97.00126       	90.81343       	92.54902       	97.34684       	93.69227       	91.168         	93.82765       	92.99366       	92.290375      	93.89269       	91.78405       	94.54891       	93.67517       	90.43531       	94.51291       	94.215385      	92.53216       	92.76524       	89.46028       	91.62028       	96.75362       	92.15426       	92.527435      	96.55587       	93.20602       	91.91206       	94.15264       	93.95626       	93.006744      	93.00639       	91.3399        	93.05706       	94.79754       	90.59871       	93.93861       	95.97424       	89.13011       	92.01683       	96.93555       	91.5144        	91.956055      	96.4687        	89.855316      	91.88612       	94.9725        	90.14283       	93.97733       	93.71114       	89.00362       	96.49006       	93.95191       	88.67431       	95.54723       	93.80726       	88.85742       	96.14645       	94.028336      	88.69926       	95.65544       	90.43706       	92.54404       	96.50712       	88.97717       	92.254654      	96.2437        	88.194954      	93.03338       	98.924484      	89.623276      	92.45698       	96.58826       	89.76148       	94.51974       	94.491135      	
91.808685      	91.8864        	95.1022        	97.851364      	95.84056       	89.41333       	93.036064      	98.11806       	90.94472       	92.40262       	96.58908       	90.42409       	92.82091       	96.011826      	91.00585       	93.18065       	94.81568       	90.41778       	94.9831        	96.169136      	91.566864      	94.872055      	92.57348       	89.62483       	98.581314      	92.50818       	91.608574      	97.01375       	94.14921       	89.67886       	95.37337       	93.967155      	91.95121       	94.584015      	90.00092       	91.50252       	97.585365      	89.829544      	90.900764      	98.16142       	91.37392       	90.15819       	97.0504        	92.487465      	91.100174      	95.50886       	89.666245      	90.63299       	98.74208       	90.879196      	92.3803        	96.73124       	90.63097       	91.63866       	96.15148       	88.30771       	93.71012       	96.12425       	86.42208       	91.7503        	97.64427       	90.01149       	93.17821       	95.35986       	89.74067       	94.74043       	95.116104      	88.86724       	93.694855      	93.694374      	89.21631       	95.84754       	95.04349       	88.52631       	94.656136      	93.15368       	90.0151        	96.605675      	95.012886      	89.49449       	94.63173       	95.04683       	91.597916      	93.093         	94.147964      	92.20732       	93.885506      	92.93309       	93.07466       	96.90422       	93.742485      	90.01264       	91.807144      	97.61503       	92.56917       	92.869545      	96.160835      	93.61675       	93.15807       	94.59014       	
96.04334       	94.98581       	92.69633       	91.30192       	95.19473       	96.545166      	90.53734       	93.2357        	95.98802       	90.28722       	94.20092       	98.352036      	89.855965      	91.120735      	97.4598        	92.747925      	90.76236       	96.26385       	93.06446       	92.03337       	92.909966      	92.45665       	94.27342       	94.208115      	90.462494      	93.18077       	94.451904      	90.69371       	93.69943       	96.63244       	91.75204       	88.54808       	91.94246       	96.74073       	91.5488        	92.27083       	95.59684       	93.917564      	90.77148       	91.61459       	94.9368        	92.552605      	91.49089       	91.38962       	92.707504      	93.98183       	90.45319       	93.66976       	94.82141       	90.02697       	90.84034       	97.30683       	92.190506      	88.753456      	96.045044      	92.19245       	90.454796      	94.151855      	93.83278       	91.92341       	90.69116       	92.8748        	93.80457       	93.30982       	89.66944       	94.30343       	93.25932       	89.09565       	94.07382       	93.46085       	90.81654       	91.09388       	94.268196      	93.01102       	92.49341       	92.51624       	91.466835      	92.44197       	93.21422       	92.90787       	92.199066      	93.47194       	91.78814       	91.33192       	94.67073       	92.833374      	92.65886       	94.44233       	89.67097       	91.229195      	96.95714       	89.19257       	90.97987       	96.03686       	91.45463       	91.40823       	94.17135       	92.98194       	93.154465      	93.38114       	
98.8035        	97.89259       	92.53692       	87.559845      	93.09581       	100.92604      	92.5584        	90.34102       	100.18936      	92.09062       	89.97476       	101.03012      	92.03256       	91.6067        	99.542694      	90.78728       	91.40258       	99.54552       	92.29129       	92.926476      	97.652916      	92.60446       	95.16131       	98.03515       	90.191765      	94.3534        	96.198814      	90.23508       	95.62814       	97.195366      	90.0244        	92.05456       	97.68616       	91.55941       	93.48373       	95.387955      	92.54798       	93.50838       	93.51323       	93.26645       	95.31575       	96.03814       	90.83238       	90.7976        	97.37462       	95.89821       	91.41357       	95.920525      	94.48137       	92.94048       	94.51781       	93.62078       	93.864105      	95.60055       	92.15665       	91.2439        	95.93336       	92.60928       	92.559525      	95.26571       	92.06587       	91.68473       	97.521645      	93.85737       	92.20653       	96.09713       	92.13989       	93.28761       	95.438705      	92.769455      	93.06078       	94.36203       	91.96981       	94.11966       	95.52735       	91.780846      	93.66808       	94.06062       	91.25122       	95.10539       	92.848434      	93.03688       	93.137245      	90.56896       	94.44507       	94.06513       	91.19942       	93.74511       	92.14842       	91.287094      	95.09077       	92.99327       	90.9899        	95.872284      	91.81168       	90.899956      	96.77876       	92.28097       	93.61783       	94.59672       	
98.816536      	95.57899       	90.79809       	89.41485       	94.69316       	97.44445       	88.854004      	91.868195      	97.48035       	90.97936       	93.04564       	96.649445      	89.64664       	94.031425      	96.39521       	90.45756       	93.86889       	95.85612       	88.3944        	93.786095      	98.260185      	90.41706       	93.37497       	96.08752       	84.9397        	97.28336       	98.40024       	87.23405       	96.53345       	97.36548       	88.68363       	95.98372       	94.70428       	90.80397       	97.59802       	94.785904      	89.23103       	99.28072       	96.76282       	90.824326      	99.95215       	95.593544      	89.735634      	100.93172      	95.716385      	92.018326      	98.926506      	95.26493       	92.76124       	100.42282      	96.507515      	94.753944      	98.55378       	92.50183       	96.8871        	98.66382       	92.67729       	94.9535        	98.18138       	92.153404      	93.35019       	98.39998       	93.50298       	94.04314       	95.88164       	92.36848       	96.69472       	96.77314       	93.54383       	92.91534       	92.84279       	94.864334      	98.44454       	92.541016      	93.91854       	97.58981       	93.958206      	91.734055      	95.83568       	98.10776       	93.99079       	93.603386      	95.564415      	95.319664      	94.95861       	93.410934      	96.86878       	96.050934      	90.609055      	94.77459       	97.44644       	92.91949       	91.142815      	93.82437       	93.83406       	91.31438       	92.42627       	92.63805       	92.42476       	89.64346       	
91.92638       	95.731964      	94.64364       	91.90083       	88.98865       	92.1141        	93.30992       	93.42937       	91.726105      	93.24322       	92.909615      	93.667274      	90.96008       	92.126595      	97.99971       	93.75418       	93.37474       	95.89209       	93.92833       	95.90335       	94.73816       	94.815674      	97.843315      	95.0968        	94.172325      	99.339264      	98.369675      	95.386154      	98.69425       	96.05187       	96.247856      	101.39372      	99.565994      	97.07327       	100.72154      	100.39943      	97.29194       	100.105995     	100.50312      	100.18839      	100.110794     	97.900276      	97.83308       	103.95238      	97.1043        	97.5117        	104.87056      	97.90512       	95.53914       	103.076546     	99.72648       	96.1645        	100.59832      	97.731606      	97.80135       	100.460205     	97.02666       	98.62497       	99.2662        	93.280075      	99.93656       	101.15008      	92.59937       	99.07036       	98.361984      	89.15048       	102.32007      	98.48246       	92.231766      	100.72812      	96.93554       	92.55054       	100.7373       	97.27225       	92.613434      	102.197525     	92.71392       	90.08542       	103.15935      	95.49024       	92.04016       	101.37346      	95.616714      	91.82366       	101.859245     	95.36856       	92.805756      	101.04546      	93.08232       	95.174995      	102.21634      	94.26524       	96.42048       	99.86325       	93.082115      	99.43548       	100.22606      	93.66459       	97.94583       	100.7891       	
97.15301       	93.05388       	89.539925      	91.48901       	96.62682       	95.17276       	91.10517       	94.9959        	94.330284      	91.240326      	95.953575      	96.7154        	90.96103       	95.86512       	93.761406      	91.05087       	97.752106      	94.01045       	91.74386       	95.15717       	93.2351        	95.20488       	94.44451       	93.571655      	94.139854      	93.51877       	90.84012       	96.127266      	95.89064       	91.865974      	95.21749       	94.39218       	93.458046      	95.22875       	94.525505      	94.29455       	95.67209       	92.76568       	93.27286       	97.054214      	93.00769       	94.06007       	95.86349       	91.23454       	95.040634      	95.49869       	92.100716      	93.60536       	94.84168       	92.76769       	94.28899       	95.72888       	93.78242       	94.89133       	91.31751       	90.74509       	98.53514       	94.78038       	91.72237       	97.75804       	96.53331       	91.81006       	96.646935      	94.93762       	94.24117       	96.85519       	92.21359       	94.97213       	99.49113       	92.817055      	94.034706      	97.896225      	92.21709       	93.027954      	99.76402       	92.66243       	94.08781       	96.80531       	93.780106      	95.67281       	96.74506       	93.2244        	96.1824        	94.70183       	91.91281       	98.13836       	96.13707       	92.39962       	96.18323       	95.00347       	95.19878       	94.43657       	94.57211       	94.51664       	94.79955       	91.96436       	97.01299       	96.94435       	93.599174      	95.729034      	
91.136505      	89.882774      	91.06649       	93.584526      	95.580795      	94.35729       	90.82173       	94.653206      	92.38681       	91.75302       	93.83575       	92.04546       	94.42704       	94.69783       	90.16481       	91.224945      	95.69909       	91.76771       	91.06056       	94.02475       	90.25029       	87.231735      	96.500626      	93.153694      	88.50216       	95.10635       	94.00472       	90.93637       	93.135185      	91.29494       	91.53456       	95.20749       	89.27709       	90.083336      	96.71459       	89.382866      	90.03243       	96.10179       	91.06259       	90.1232        	94.8345        	92.00333       	90.70309       	93.979126      	90.898476      	92.965034      	94.72883       	89.33515       	93.2831        	93.709335      	90.253624      	92.808334      	94.594925      	90.20292       	91.559845      	93.691925      	92.08622       	92.60001       	93.07498       	92.84791       	91.647934      	92.77042       	94.46821       	91.487114      	92.26816       	94.12948       	91.01913       	93.74106       	93.7001        	93.032394      	94.19108       	91.54947       	91.547455      	96.58222       	90.329315      	91.955         	95.77901       	93.53963       	91.52493       	93.362915      	94.286415      	93.00247       	94.74018       	92.22536       	89.93996       	94.49183       	94.949776      	91.68025       	94.91817       	93.72991       	90.992676      	94.7277        	93.51318       	90.842445      	96.36763       	92.778         	89.59085       	96.4701        	93.71122       	91.73939       	
91.667244      	94.04447       	94.70894       	93.374405      	91.4514        	94.50636       	94.321075      	91.05451       	91.409355      	95.930504      	92.39605       	93.23225       	93.59766       	90.09416       	94.78555       	96.09773       	89.616646      	96.38049       	94.7762        	90.11046       	93.25328       	94.470024      	91.88574       	94.80237       	93.21793       	88.813545      	95.96535       	94.290115      	88.5347        	95.76014       	93.78267       	88.451256      	94.982185      	94.29126       	90.79814       	94.62138       	91.46887       	86.593025      	98.79652       	93.7819        	90.12198       	98.78527       	93.84595       	90.65914       	95.807076      	93.43804       	91.470634      	99.399956      	90.7959        	90.66223       	99.57216       	92.4694        	92.099625      	96.72031       	92.558784      	92.42608       	96.597084      	92.268135      	92.498505      	94.77371       	92.0249        	95.5658        	97.440956      	89.740105      	94.4965        	96.58045       	92.23507       	93.70907       	96.61242       	92.24296       	91.97387       	96.53573       	93.65576       	95.27278       	94.49277       	89.82828       	96.50557       	94.09714       	91.43815       	95.05156       	96.16474       	90.556564      	94.52402       	97.26217       	90.764         	94.92799       	94.811806      	90.681656      	92.90541       	96.02233       	93.30494       	94.996284      	93.158         	91.014         	94.9161        	93.712616      	89.98698       	96.39808       	93.78279       	89.49692       	
96.93375       	94.852776      	92.87188       	93.12485       	94.83731       	92.094406      	91.85477       	99.719         	91.516914      	92.73268       	98.9084        	93.68983       	90.280655      	96.55006       	95.36178       	92.560844      	97.51018       	91.32983       	92.93609       	97.67784       	92.51327       	92.581985      	98.31297       	90.49467       	90.85883       	98.771324      	92.32099       	91.74091       	96.9956        	91.909805      	91.665665      	96.78983       	93.19031       	94.22702       	91.760216      	89.59929       	97.236176      	95.47446       	88.13547       	97.06015       	98.1047        	89.99681       	92.29061       	96.307465      	95.00054       	93.82555       	92.020996      	94.14235       	94.399185      	93.2224        	89.47802       	97.533936      	91.27222       	87.85271       	97.94111       	95.305336      	87.312454      	92.643326      	96.50834       	88.965836      	91.87145       	95.68553       	91.12601       	91.6718        	91.254105      	93.454575      	95.622955      	89.58334       	89.312         	96.84876       	91.7872        	87.74951       	96.50605       	94.31372       	88.50037       	94.82802       	94.739716      	89.93842       	92.82515       	93.10648       	92.41021       	94.52159       	92.74885       	91.22966       	91.102905      	94.31383       	94.49399       	93.527985      	92.10639       	93.644516      	94.775375      	91.48372       	92.55584       	95.967705      	95.21581       	91.21541       	92.1915        	95.19471       	94.17003       	91.89257       	
92.1801        	91.337875      	92.92809       	95.063385      	95.15762       	92.33813       	93.00342       	93.16191       	93.60451       	94.321495      	92.39259       	92.66307       	94.195816      	90.81288       	92.29126       	94.78748       	93.86518       	91.91242       	88.21306       	91.535675      	98.83959       	89.36346       	92.28186       	96.93696       	93.278145      	90.490715      	92.774605      	95.27181       	92.89638       	90.42461       	91.81835       	93.026695      	93.40516       	89.525345      	95.32403       	94.324394      	88.53409       	93.05856       	96.46722       	91.786934      	89.22783       	94.97767       	92.20149       	93.20796       	92.91195       	91.560295      	94.614555      	89.96341       	91.4418        	96.52893       	92.780235      	89.33707       	92.64265       	95.20546       	88.59176       	93.239296      	92.93095       	90.7095        	90.11084       	91.960884      	93.50978       	92.44906       	89.3007        	91.92984       	95.267525      	90.90811       	88.73351       	95.691864      	90.74077       	88.32471       	94.25465       	93.26795       	91.815094      	90.55538       	91.658676      	94.02881       	92.43938       	89.449905      	95.43633       	93.78328       	88.743416      	94.5003        	94.49364       	91.539635      	92.49444       	91.57372       	90.64841       	96.5793        	93.74211       	92.260994      	96.939095      	91.035675      	92.45723       	94.93309       	93.203445      	92.66813       	96.32047       	91.351364      	92.32303       	97.22698       	
97.217316      	99.58406       	96.06275       	93.0041        	95.993         	99.58501       	96.59858       	95.52074       	98.84638       	91.374466      	95.59802       	100.94564      	92.31013       	95.20213       	100.296585     	93.593254      	92.4598        	100.269615     	93.43846       	95.82785       	96.511925      	91.873116      	96.58419       	97.42318       	93.327896      	94.63146       	97.47476       	92.03463       	95.47803       	97.34497       	92.42116       	94.052864      	94.91938       	94.79257       	96.12645       	94.02845       	92.4939        	94.4329        	95.85298       	91.634415      	96.38086       	95.04635       	90.843185      	94.32788       	96.06046       	93.27204       	93.964775      	93.68686       	86.26851       	98.01401       	98.1608        	88.47449       	96.96715       	96.1159        	91.50731       	94.17337       	93.54959       	91.23874       	95.21467       	91.14519       	89.10364       	98.63722       	94.301186      	90.50167       	95.71927       	94.45704       	91.120346      	95.331314      	95.35123       	91.23067       	93.13753       	93.405426      	94.56615       	94.90968       	89.00971       	93.38257       	96.66118       	90.543365      	92.33045       	97.00432       	91.322136      	90.94108       	96.728264      	95.01393       	91.8346        	93.37407       	93.481285      	96.12458       	91.49878       	92.47236       	96.27264       	92.48994       	91.00297       	95.550186      	94.85335       	90.25963       	93.10084       	92.915436      	93.76048       	92.74202       	
94.3737        	92.00414       	91.28763       	92.06707       	94.28635       	93.74025       	90.3912        	95.310455      	92.15376       	90.24205       	96.093506      	93.87398       	92.30473       	92.86392       	93.324615      	90.5809        	95.96703       	91.75566       	92.26967       	94.41943       	91.33345       	94.17636       	95.099014      	93.163         	90.704865      	93.0174        	92.731094      	93.090805      	91.759895      	93.95318       	93.52996       	92.29416       	93.492134      	93.05921       	93.19123       	92.791695      	92.39731       	92.295395      	93.25687       	94.266396      	93.06555       	89.312485      	90.00453       	98.63061       	92.58285       	90.75745       	95.36632       	94.62435       	91.3784        	90.46476       	94.75313       	95.24212       	91.56033       	91.30925       	95.451256      	93.50908       	90.9262        	93.230225      	95.382324      	89.489296      	90.98837       	96.69958       	92.45153       	90.32265       	94.21193       	91.3618        	93.70053       	92.02755       	91.27811       	95.44615       	90.91874       	89.506195      	95.61998       	92.53952       	88.47553       	94.63624       	91.98742       	91.860146      	93.102455      	92.20557       	93.1344        	92.58847       	90.85771       	95.24477       	95.54035       	90.236206      	92.03809       	94.7733        	91.71          	92.25998       	92.76645       	92.70239       	91.38241       	92.68395       	93.928085      	93.64017       	92.76855       	92.68525       	92.684784      	92.043625      	
96.796455      	95.83157       	92.0725        	89.55908       	94.648544      	97.37582       	88.15717       	93.049805      	98.253975      	89.36989       	91.20567       	98.4594        	86.229034      	92.58814       	99.04835       	87.2263        	93.108475      	96.32828       	87.76732       	94.97967       	96.24936       	88.44709       	95.11724       	92.32455       	88.04113       	100.20667      	94.33667       	88.628174      	99.89415       	92.43361       	89.17744       	99.11482       	91.949745      	91.5169        	96.73805       	88.741684      	92.54338       	99.51701       	88.02257       	93.841225      	99.518936      	84.36771       	93.55871       	101.34018      	88.36185       	93.31326       	97.72957       	89.35971       	94.0124        	96.025764      	89.14521       	96.80632       	92.549614      	87.60599       	99.54145       	95.06902       	86.94266       	96.78343       	94.61868       	89.45114       	94.553604      	94.72482       	89.766914      	93.85075       	93.371376      	93.14791       	96.72657       	90.907715      	92.88554       	96.73854       	92.01208       	91.84807       	97.789276      	92.70166       	89.35704       	97.37143       	95.36769       	89.782455      	95.832115      	95.31802       	88.82801       	94.52815       	96.23396       	92.91153       	95.30816       	92.57223       	92.80191       	98.56955       	92.437294      	91.19716       	100.21713      	91.72053       	89.60573       	99.892815      	95.27669       	90.82118       	95.05311       	94.21783       	92.50077       	95.48931       	
94.93039       	92.760864      	91.131905      	92.25353       	95.40502       	95.18286       	92.9439        	94.35064       	94.62694       	90.8134        	94.83915       	94.58513       	91.0829        	95.93358       	94.28219       	90.90996       	94.559044      	95.802925      	93.05488       	92.906044      	92.42746       	92.58043       	94.719894      	91.49418       	92.227         	94.722466      	91.378876      	93.042564      	95.030205      	92.4676        	92.31386       	94.10397       	92.872246      	94.26563       	95.09139       	92.352104      	90.69572       	93.313614      	97.110054      	93.968056      	94.28476       	95.451706      	94.55777       	95.24311       	92.59264       	96.40231       	95.93719       	94.02315       	92.4851        	95.88203       	95.87074       	92.82447       	95.74589       	94.36652       	92.28768       	96.82844       	93.38636       	93.84632       	95.27678       	92.889275      	94.478516      	97.07069       	93.92432       	93.4926        	96.04952       	92.85109       	94.22465       	98.07557       	93.97059       	91.84657       	95.89159       	96.00951       	92.39438       	94.59561       	94.65982       	93.81921       	94.29914       	93.40069       	95.20431       	95.49122       	92.49171       	92.39038       	94.81351       	94.51062       	94.56224       	96.21608       	92.70809       	92.47078       	95.30078       	95.637436      	91.69185       	95.915596      	94.00379       	91.90579       	96.31395       	94.2882        	95.35726       	94.26474       	88.66673       	96.90701       	
90.63785       	92.21118       	92.30821       	92.04553       	90.69247       	91.069916      	93.27698       	87.219         	90.9519        	95.4132        	87.97553       	90.98569       	94.64587       	88.44289       	90.28463       	93.874504      	91.185616      	91.389         	89.59699       	87.46396       	96.58934       	92.279106      	87.54497       	96.95662       	93.95956       	87.71799       	93.070206      	94.928024      	91.44386       	92.8809        	91.07157       	91.54201       	95.722         	89.880486      	92.25343       	96.64149       	90.42445       	88.65657       	97.92862       	93.448         	88.858444      	95.16096       	92.92526       	92.92734       	94.227104      	93.22836       	93.7161        	92.654915      	91.30558       	94.537         	96.49681       	91.15195       	92.38253       	95.49036       	94.052284      	91.33587       	94.629036      	94.940254      	91.54914       	93.12019       	93.92793       	93.662186      	93.69591       	91.441635      	90.12894       	96.105835      	94.40065       	91.66242       	95.99863       	94.25668       	92.36417       	94.891754      	92.84101       	93.52087       	96.32434       	93.85601       	92.55485       	96.033195      	95.72844       	91.59863       	97.15275       	95.753006      	89.992         	97.3284        	95.01957       	92.205536      	97.142685      	94.75357       	92.49842       	98.55905       	96.17532       	92.92524       	97.77433       	92.83358       	95.86347       	98.503944      	92.74325       	95.92795       	98.13919       	93.11616       	
96.13262       	94.448395      	92.50469       	91.08493       	95.390396      	99.71007       	94.36206       	92.858696      	96.550446      	95.9533        	93.038704      	92.36633       	97.059586      	95.916245      	93.39886       	93.05665       	94.91548       	97.57411       	90.66945       	94.33341       	98.053635      	91.98122       	89.73882       	98.34921       	97.23725       	91.851974      	93.89605       	95.354095      	93.92441       	94.95332       	91.803635      	97.02132       	93.925606      	91.15956       	96.65862       	95.48634       	91.651535      	93.64631       	96.01688       	91.75541       	93.95902       	95.83037       	93.66078       	91.66707       	89.012535      	98.16286       	96.805084      	91.42184       	95.92895       	97.20716       	93.020584      	91.92902       	95.92754       	94.02978       	94.69711       	90.63937       	93.20765       	97.56609       	92.97503       	90.82495       	95.24649       	94.1158        	89.90103       	94.3579        	95.66297       	90.763214      	93.17479       	95.84708       	94.48286       	93.386215      	90.5592        	93.923004      	94.59912       	91.86974       	92.58454       	96.71241       	90.933754      	90.783676      	96.47474       	94.241806      	92.35692       	92.54281       	94.00096       	93.32235       	94.378174      	91.88946       	95.1711        	93.29321       	92.035034      	96.6243        	95.666824      	92.90268       	94.867805      	94.63227       	93.202324      	95.56067       	96.695015      	94.82996       	93.502266      	94.2095        	
98.41164       	94.845184      	93.38989       	93.651596      	95.64688       	97.43859       	93.709114      	94.08247       	96.49125       	94.657196      	96.725105      	93.76759       	92.645805      	98.26794       	94.75044       	92.84021       	96.80733       	93.34485       	93.475655      	96.55385       	93.91161       	93.98751       	94.63813       	93.41967       	95.61889       	96.90877       	91.89746       	94.60125       	96.33361       	94.39147       	93.811264      	97.101555      	93.28726       	92.64084       	96.074905      	95.50566       	95.714386      	95.71459       	93.41065       	94.132256      	97.991035      	92.16662       	95.601204      	98.32567       	93.25068       	95.98544       	97.13449       	94.514725      	95.385025      	97.3251        	94.1495        	95.58898       	97.11071       	95.56261       	96.1637        	92.44581       	93.9261        	99.6101        	96.01893       	94.08222       	98.22502       	96.46411       	92.90813       	95.9034        	95.48275       	97.02243       	94.76408       	91.826645      	96.264946      	97.35571       	93.45231       	93.72665       	97.975266      	93.46642       	94.61458       	96.20429       	95.85851       	94.11667       	95.073746      	97.50514       	96.57901       	94.27198       	94.110245      	96.85661       	94.964645      	93.4775        	96.978         	96.37129       	93.031624      	95.8423        	99.1936        	94.07463       	95.254166      	98.593796      	93.692215      	98.949776      	99.992256      	96.33039       	99.01346       	96.15047       	
89.427444      	89.07018       	91.62064       	91.56932       	87.371506      	85.649445      	94.26156       	91.40496       	86.1774        	93.81851       	90.33724       	86.7763        	91.30014       	90.32838       	88.44925       	90.86345       	88.211044      	87.791016      	91.841675      	88.75453       	87.26884       	93.23256       	87.21239       	85.666435      	92.785355      	90.408905      	86.68194       	92.75513       	90.758545      	86.997         	93.78256       	89.29757       	89.23629       	93.35566       	87.90406       	89.85959       	95.890366      	89.565674      	90.185265      	94.387566      	87.323814      	91.923325      	95.12576       	88.122856      	91.69598       	94.38134       	88.21969       	92.90872       	95.68709       	90.907745      	93.51579       	89.939835      	89.7764        	98.489105      	90.34013       	90.024155      	96.71722       	92.781654      	88.221504      	94.44897       	92.3722        	89.69156       	93.62591       	88.87047       	90.687935      	94.42348       	88.20271       	90.58869       	95.33477       	85.29371       	89.61715       	98.37247       	86.725235      	89.22846       	94.12637       	87.00582       	91.15268       	92.36157       	87.982315      	91.51468       	91.473465      	85.78975       	94.52093       	94.10368       	86.82459       	92.07774       	91.759995      	89.79506       	94.8331        	90.10648       	91.80931       	86.584236      	81.63478       	84.678375      	88.427444      	84.23311       	87.32788       	86.74444       	84.61637       	89.89474       	
95.30391       	91.48949       	91.23274       	94.843254      	96.64783       	93.51705       	95.431465      	95.33607       	94.28667       	94.2345        	93.96254       	95.86942       	96.23231       	96.83192       	92.79562       	94.1064        	98.62203       	95.19223       	92.98792       	98.64376       	96.16664       	91.195         	97.337845      	97.45927       	94.48674       	94.09383       	94.805305      	99.37025       	95.79487       	95.46936       	97.998505      	99.62845       	94.2672        	96.32094       	99.536835      	93.02413       	95.92501       	95.45904       	95.775925      	99.62603       	95.26744       	93.535324      	95.39241       	91.52755       	92.13478       	97.76062       	93.42964       	90.22539       	92.74126       	89.16606       	91.09691       	96.17799       	89.92253       	93.32679       	92.809586      	88.55176       	90.218475      	95.774086      	89.98691       	89.11514       	95.995964      	96.31139       	100.39106      	101.72407      	95.189445      	99.1342        	96.381         	91.70196       	104.28832      	98.17981       	93.33066       	101.83769      	98.15793       	92.25955       	101.56468      	96.16602       	95.83302       	100.02039      	92.931206      	95.354576      	101.463104     	93.09398       	94.82775       	100.86883      	92.44622       	96.42048       	99.719246      	95.444786      	94.94931       	99.17135       	96.25448       	89.69428       	89.099594      	85.275764      	90.079346      	92.82638       	85.53181       	92.97949       	93.00307       	86.96542       	
94.19361       	95.509346      	96.22492       	93.395584      	89.17489       	93.70086       	99.751335      	91.748         	91.79143       	96.27497       	93.3252        	91.751396      	94.67484       	94.326866      	93.77034       	94.68975       	90.44499       	95.167694      	96.51263       	88.84337       	94.79948       	97.59549       	88.174934      	93.053085      	98.32239       	89.16997       	92.92537       	93.93674       	93.063545      	87.14031       	81.41147       	86.45503       	89.08964       	81.71449       	86.93321       	91.85892       	84.42402       	85.24723       	91.303505      	86.81585       	88.55738       	90.26229       	87.47531       	86.977264      	84.28956       	92.451584      	92.89478       	87.90074       	91.53833       	91.83019       	88.71089       	88.52924       	90.092964      	90.6336        	92.102295      	86.69394       	90.40886       	95.019196      	89.720856      	86.9644        	93.93006       	100.427086     	96.3431        	100.775444     	99.4987        	95.72348       	96.22857       	98.42992       	98.57972       	94.544106      	94.08406       	96.9369        	98.8324        	92.06848       	95.720856      	99.27201       	92.84851       	93.206955      	98.44825       	96.59151       	92.63331       	94.27136       	94.3329        	96.553764      	92.78612       	93.238594      	97.61353       	92.27939       	92.59065       	97.82819       	94.76634       	83.79213       	87.45954       	87.79094       	87.35396       	89.84428       	90.37866       	89.85064       	86.21831       	91.083984      	
92.934235      	99.75819       	100.42931      	96.127075      	91.317795      	93.22669       	97.620834      	95.20326       	95.99496       	93.89764       	91.62825       	97.59856       	93.88387       	90.91625       	97.054214      	97.54031       	89.204636      	95.83143       	100.24146      	89.633385      	94.254234      	97.66638       	91.88289       	94.158844      	96.9866        	94.88939       	92.02087       	94.84252       	94.38482       	88.02364       	83.71764       	86.68059       	89.78556       	87.07732       	86.67221       	92.45485       	88.704865      	86.20743       	88.810165      	91.58072       	90.07027       	89.65251       	91.417076      	90.46721       	91.53194       	89.22857       	91.02931       	93.08822       	90.31865       	88.656624      	93.065926      	92.83161       	88.7456        	92.166954      	92.5927        	88.51313       	92.196495      	94.17394       	91.0365        	88.35118       	89.87813       	102.13239      	102.37202      	95.706505      	98.79674       	101.95683      	95.48994       	93.80888       	99.9307        	99.2629        	95.93045       	95.201645      	96.178345      	97.89068       	96.33764       	93.01985       	98.8559        	96.18924       	91.036736      	98.77631       	99.41679       	90.952065      	96.53105       	98.539215      	95.23256       	96.43124       	99.127556      	94.52742       	96.847946      	97.935196      	96.1046        	89.32326       	87.55769       	89.58594       	93.51311       	88.31634       	90.79389       	94.638725      	89.35986       	89.29485       	
93.605865      	96.44478       	96.288216      	93.01925       	91.67976       	94.05063       	89.0278        	92.376396      	99.28781       	90.861015      	91.474724      	97.78148       	92.35278       	91.47789       	93.53863       	93.6405        	94.714485      	92.30327       	88.50679       	95.7426        	94.89726       	87.93302       	94.17939       	94.39011       	87.61071       	94.799324      	96.36645       	89.38692       	94.21557       	83.87259       	83.219475      	87.544525      	84.865105      	86.28182       	88.66793       	82.7131        	87.45256       	92.541824      	83.79112       	87.56735       	91.448715      	83.746956      	88.4533        	91.58312       	87.3356        	88.439255      	86.764755      	86.71856       	94.11811       	88.155396      	86.90137       	94.04777       	89.88709       	85.71983       	93.1753        	90.392715      	87.03512       	91.486465      	87.27901       	86.73776       	92.56923       	94.665215      	96.26217       	100.47569      	93.1652        	93.18631       	102.2922       	93.76208       	92.646935      	99.48392       	91.34621       	93.99532       	98.829315      	91.92951       	93.29509       	96.33881       	89.43411       	94.61271       	97.21567       	90.57075       	93.72295       	93.613075      	90.731804      	98.97822       	93.01203       	90.95568       	96.667564      	93.78231       	90.066536      	96.394615      	95.95279       	85.973114      	86.18853       	82.79778       	89.57814       	88.95387       	84.79394       	89.75994       	91.564156      	84.180214      	
94.914604      	95.81111       	95.99565       	95.08861       	92.54058       	90.646034      	92.9344        	96.85222       	89.17148       	91.31376       	97.385086      	91.774895      	88.93776       	97.44939       	94.783646      	87.20737       	93.5763        	95.87253       	91.522934      	93.61921       	92.253296      	93.42948       	92.29717       	90.96254       	94.53515       	95.37744       	90.73015       	90.88428       	97.70628       	84.33945       	83.51461       	90.29003       	86.51927       	83.179214      	88.847855      	90.642136      	88.2816        	87.446205      	86.66398       	92.11344       	89.605354      	85.43938       	92.05139       	92.24137       	83.72736       	90.47688       	96.46107       	89.19576       	90.467735      	92.23465       	91.05592       	90.78268       	90.75617       	90.70738       	94.60425       	87.725494      	87.69488       	97.27995       	90.00858       	86.66657       	96.29527       	99.58532       	96.83116       	101.34909      	97.527695      	97.5359        	98.3205        	93.5855        	98.60176       	99.96689       	93.42663       	96.09516       	98.10326       	92.46593       	97.09626       	98.962494      	93.736694      	94.221275      	96.353134      	95.707115      	95.77977       	94.468575      	97.060844      	95.999214      	90.67967       	97.69195       	100.61935      	93.475624      	96.590904      	99.97875       	97.15018       	89.2672        	87.32551       	91.76265       	90.357796      	86.517105      	92.9187        	95.29639       	89.58529       	88.55673       	
