# www.neaspec.com
# Scan:	 	AFM
# Project:	 	20251007_PS
# Description:	 	
# Date:	 	10/07/2025 15:58:42
# Scanner Center Position (X, Y):	[µm]	49.66	48.17	 
# Rotation:	[°]	0	 	 
# Scan Area (X, Y, Z):	[µm]	5.000	5.000	0.000
# Pixel Area (X, Y, Z):	[px]	100	100	1
# Averaging:	 	1	 	 
# Integration time:	[ms]	5	 	 
# Laser Source:	 	4.5-15 µm nano-FTIR laser
# Detector:	 	R
# Target Wavelength:	[µm]	7.502	 	 
# Demodulation Mode:	 	Fourier
# Tip Frequency:	[Hz]	238,800.109	 	 
# Tip Amplitude:	[mV]	13.000	 	 
# Tapping Amplitude:	[nm]	74.376	 	 
# Modulation Frequency:	[Hz]	0.000	 	 
# Modulation Amplitude:	[mV]	0.000	 	 
# Modulation Offset:	[mV]	0.000	 	 
# Setpoint:	[%]	79.75	 	 
# Regulator (P, I, D):	 	4.206850	8.625812	1.000000
# Tip Potential:	[mV]	0.000	 	 
# M1A Scaling:	[nm/V]	0.426	 	 
# M1A Cantilever Factor:	 	1,000	 	 
# Q-Factor:	 	452.3	 	 
# Version:	 	2.1.11536.0
74.148254      	74.122475      	74.2538        	74.21501       	74.134995      	74.126884      	74.12576       	74.10545       	74.1278        	74.13177       	74.00516       	74.01851       	74.10874       	74.19055       	74.09896       	74.00415       	74.27838       	74.06002       	73.968925      	74.27014       	74.18812       	74.08974       	74.21748       	74.16929       	74.1636        	74.052216      	73.09416       	69.62184       	74.06906       	74.25743       	74.17742       	74.12892       	73.78914       	74.19116       	74.23592       	74.14874       	74.18193       	74.14168       	74.06459       	74.16386       	74.233284      	74.12053       	74.26924       	74.22664       	74.065025      	74.024994      	74.17487       	74.23178       	74.16775       	74.09588       	74.11551       	74.120155      	74.2647        	74.08774       	74.18298       	74.17027       	74.19062       	74.41759       	78.74668       	77.06136       	73.93581       	73.894844      	74.080284      	74.12962       	74.1328        	74.21268       	74.1354        	73.87804       	74.06971       	74.226814      	74.05404       	74.10777       	74.12509       	74.1378        	74.214935      	74.02255       	74.152016      	74.085464      	74.13553       	74.19094       	74.14123       	74.12477       	74.13283       	74.13522       	74.113365      	73.91267       	74.15837       	74.24079       	67.91473       	73.87295       	74.26337       	74.28208       	73.96335       	74.17242       	73.81246       	74.18978       	73.88264       	74.09372       	74.24827       	73.82027       	
74.18594       	74.29722       	74.17628       	74.162544      	74.22407       	73.70084       	73.98489       	74.19272       	74.17033       	74.18528       	74.22524       	74.04047       	74.09947       	74.067726      	74.09779       	73.728775      	74.175224      	74.33188       	73.70931       	73.88946       	73.764305      	73.23698       	74.29903       	74.5688        	73.99217       	74.08444       	73.04907       	71.04972       	74.161575      	74.02627       	74.32836       	74.19666       	74.12499       	74.19537       	74.19381       	74.125824      	74.25913       	74.18449       	73.90797       	74.24609       	74.023346      	74.20169       	74.222534      	74.12243       	74.17037       	73.96078       	74.18585       	74.05667       	74.18371       	74.05119       	74.31683       	73.94631       	74.36051       	73.865685      	74.4099        	74.12976       	74.28932       	74.18872       	76.33931       	76.21953       	76.451805      	74.67152       	73.87343       	74.1573        	74.36505       	74.08409       	74.10661       	74.103386      	74.12099       	74.04347       	74.11571       	73.95065       	74.24202       	74.2172        	73.99841       	74.124596      	74.20593       	74.197296      	73.98318       	74.194046      	74.12049       	74.15258       	74.03104       	74.150635      	73.83933       	74.2292        	74.20662       	74.23914       	69.52213       	73.81951       	71.63062       	73.773994      	72.61323       	72.59962       	74.17357       	75.46595       	79.469475      	74.82547       	73.764305      	73.97224       	
74.21361       	74.15237       	74.316345      	73.93233       	73.87646       	73.90386       	74.03447       	74.19          	73.97652       	73.699066      	74.3654        	74.52755       	74.17646       	74.31498       	73.85103       	73.592384      	73.94622       	73.97792       	73.86859       	74.3352        	74.16013       	74.00735       	74.188805      	74.445206      	74.16406       	74.15036       	70.559494      	73.95771       	74.15559       	74.004234      	74.02059       	73.60686       	73.69206       	72.462585      	73.49542       	74.831955      	73.80822       	73.66129       	72.606         	72.336685      	72.64498       	72.82979       	72.50737       	72.36348       	73.76274       	75.47883       	74.66835       	73.91962       	74.2388        	73.26813       	73.78214       	73.919945      	73.9449        	73.7601        	73.610054      	74.77538       	74.92801       	75.01506       	74.9077        	74.820076      	74.97086       	75.03432       	76.5872        	78.05531       	79.170685      	81.67346       	74.692795      	73.87293       	73.838234      	73.93097       	73.72832       	73.64745       	74.29895       	74.07366       	74.07816       	74.01811       	74.06466       	74.13702       	69.69578       	68.90767       	68.19644       	67.26851       	71.89283       	73.59871       	74.68965       	75.122086      	74.85639       	74.93491       	75.407295      	75.57826       	74.97103       	72.7063        	70.94772       	67.02224       	66.361786      	67.2972        	69.00034       	73.27838       	75.49765       	76.01797       	
74.13668       	74.08893       	74.140015      	73.966576      	73.94544       	74.04839       	74.12527       	74.0532        	74.245834      	74.041214      	74.0508        	74.173225      	74.03738       	74.08585       	74.27649       	73.93616       	74.18366       	74.20012       	74.02755       	74.18196       	74.17484       	74.07325       	74.26234       	74.093864      	74.21416       	74.39663       	69.571175      	73.49784       	73.69485       	74.18603       	74.282005      	74.3381        	74.19095       	74.22663       	74.03294       	74.39663       	74.08439       	74.10611       	74.19552       	74.10074       	74.22382       	74.2092        	74.14364       	74.115845      	74.25449       	73.8829        	73.9557        	74.46614       	74.03028       	74.173874      	74.090385      	74.07106       	74.18597       	74.05905       	74.323875      	74.08774       	74.217026      	74.25502       	78.34088       	78.27003       	73.78795       	74.04733       	73.62674       	74.04294       	74.14625       	74.02596       	74.13514       	74.101494      	73.942986      	74.26799       	74.22343       	74.04708       	74.08621       	74.07494       	74.20696       	74.32425       	73.997215      	74.08855       	74.25876       	74.1112        	74.220184      	74.02619       	74.01719       	74.35662       	73.46878       	68.34739       	68.08723       	69.586914      	71.233864      	71.512634      	72.278694      	74.16091       	76.097         	76.90479       	77.74148       	78.33318       	79.67541       	73.71399       	73.80443       	74.04704       	
74.1297        	74.08405       	74.21765       	74.1015        	74.12983       	74.13708       	74.173454      	73.998955      	74.21142       	73.99579       	74.33489       	73.986176      	74.09737       	74.19525       	74.268776      	74.14963       	73.96891       	74.19915       	74.22932       	74.1388        	73.88815       	74.09728       	74.24844       	74.05778       	74.19832       	74.160355      	70.626434      	73.08225       	74.02436       	74.14596       	74.01547       	74.06848       	74.27988       	74.24017       	74.24048       	74.01068       	74.12953       	74.104034      	74.36906       	74.0658        	74.068184      	74.23494       	74.03601       	74.1928        	74.08524       	74.15879       	73.95206       	74.2457        	74.19718       	74.200226      	74.18769       	74.12717       	74.06737       	74.198395      	74.07558       	74.13296       	74.08474       	74.17949       	78.23735       	78.215355      	73.67034       	73.93763       	74.08296       	74.165115      	73.97892       	73.94134       	72.94822       	74.28811       	73.99988       	74.104836      	74.25049       	74.10234       	74.153244      	74.039764      	74.06397       	74.2536        	74.13863       	74.18123       	74.15829       	74.08377       	74.27762       	74.03286       	74.27881       	71.34077       	68.0994        	66.23458       	69.441734      	72.39813       	71.09847       	72.27694       	73.756165      	74.16341       	75.62632       	76.69751       	77.73899       	78.382675      	79.673225      	78.37271       	73.96533       	74.09667       	
74.18957       	74.04393       	73.82337       	74.09212       	74.09813       	73.98303       	74.01245       	74.197         	74.1093        	74.041916      	74.23787       	74.084045      	74.09548       	73.94193       	74.16451       	74.26151       	74.0715        	74.19532       	73.99742       	74.2008        	73.995026      	74.22571       	74.11135       	74.03324       	74.20107       	74.19429       	72.514114      	68.816376      	73.9433        	74.26709       	74.19784       	74.39623       	74.3293        	73.96945       	74.044106      	73.65678       	74.14529       	73.97624       	74.02726       	74.235535      	74.18415       	74.08535       	74.154755      	74.07467       	73.85258       	74.11984       	74.0952        	74.00763       	73.98407       	74.20377       	73.91973       	73.92443       	74.14539       	73.96431       	74.001045      	73.84357       	73.91707       	74.46895       	79.12197       	76.19531       	73.602585      	73.94951       	74.08715       	74.05792       	74.142235      	74.22379       	74.13241       	74.0755        	74.08931       	73.98319       	74.04223       	74.29328       	74.19013       	74.02935       	74.14212       	74.20775       	74.10728       	74.15515       	73.97737       	74.254074      	74.041466      	74.05389       	71.49108       	67.99286       	67.4057        	67.26694       	69.66604       	71.89617       	73.05072       	72.86404       	73.4142        	74.50548       	75.9711        	77.00771       	77.89137       	79.28355       	79.39733       	81.18704       	76.236786      	75.53581       	
74.21686       	74.21053       	74.08076       	73.974335      	74.178314      	74.13673       	73.987335      	73.99528       	74.24919       	74.02901       	74.2558        	74.04162       	74.047035      	74.16321       	74.21667       	74.11159       	74.064125      	74.09983       	74.2476        	74.09546       	74.047676      	74.14966       	74.14431       	74.11497       	74.30144       	74.277405      	70.94432       	70.831566      	74.12469       	74.14689       	73.89042       	74.24727       	74.106445      	73.87555       	73.44473       	73.784424      	75.186905      	73.16537       	73.7983        	74.10389       	74.904945      	74.23398       	74.9855        	72.799034      	73.88924       	75.76923       	73.52322       	75.16021       	72.317345      	75.078766      	71.88471       	74.92814       	75.315735      	73.76137       	73.72502       	72.96644       	73.80379       	77.02522       	74.63968       	73.981285      	73.99276       	74.04181       	74.13885       	73.99857       	74.18542       	74.20732       	74.176254      	74.00275       	74.18838       	74.10098       	74.220146      	74.2509        	73.92453       	74.20612       	74.32171       	73.962296      	74.25649       	74.26426       	73.99326       	74.09007       	74.248344      	72.81892       	67.69445       	66.7946        	67.825195      	68.62045       	70.235565      	71.6108        	73.496155      	74.291374      	73.74493       	73.78255       	74.977036      	77.22877       	79.30087       	80.00303       	80.65691       	82.47867       	80.08914       	73.2065        	
74.233536      	74.275925      	74.05622       	73.904274      	74.068535      	74.07402       	74.093056      	74.12762       	74.06332       	74.20378       	74.13144       	73.95827       	74.137955      	74.1124        	74.25178       	74.06802       	74.12308       	74.172165      	74.301994      	74.06304       	73.95856       	74.28737       	74.070816      	74.2837        	74.26293       	74.13653       	74.10973       	73.60105       	74.176506      	73.381996      	72.37779       	72.59683       	72.430916      	74.073         	74.68995       	74.30166       	74.24626       	74.11874       	74.105804      	74.25709       	74.248985      	74.1461        	74.01119       	74.045555      	74.27227       	74.229805      	74.06788       	74.139824      	74.15954       	74.27783       	74.04407       	73.967         	74.17827       	74.16968       	74.28552       	74.14445       	73.902504      	74.2766        	74.32859       	74.24282       	74.20502       	74.00791       	74.18271       	74.14503       	74.25217       	74.19836       	74.10287       	74.14492       	74.1799        	74.18643       	74.15054       	74.19823       	74.13852       	74.05307       	74.22055       	74.08424       	74.236176      	74.09007       	74.06415       	74.26078       	73.15422       	68.98942       	66.99518       	67.58966       	67.1194        	69.24403       	70.3547        	70.66692       	75.5985        	76.091675      	73.6858        	72.87845       	74.81646       	77.340645      	79.90189       	80.57378       	81.19624       	83.48984       	78.66029       	72.88149       	
74.19386       	74.096054      	74.028336      	74.11108       	74.09709       	74.07624       	74.15137       	74.10257       	74.18226       	74.17011       	74.038994      	74.09843       	74.2196        	74.061745      	74.18961       	74.0904        	74.2969        	74.04766       	74.13815       	74.217674      	74.0006        	74.31608       	73.859474      	74.31334       	74.1636        	74.15669       	74.173515      	73.8731        	74.23261       	74.05188       	74.13074       	74.15283       	74.207054      	74.366455      	74.15037       	74.05304       	74.11315       	74.05772       	74.15996       	74.20738       	74.07399       	74.33215       	74.14721       	74.02426       	74.18996       	74.13616       	74.35463       	73.98367       	74.1156        	74.24281       	74.01464       	73.98976       	74.13777       	74.13271       	74.33711       	74.08391       	74.01763       	74.2406        	74.48495       	74.261246      	74.06247       	74.04572       	74.139175      	74.20067       	74.222115      	74.22248       	74.23653       	74.09979       	74.0992        	74.15111       	72.426445      	74.601616      	74.099915      	74.17597       	74.22888       	74.1217        	74.0997        	74.19674       	74.13685       	73.94082       	68.12988       	70.524635      	61.875767      	68.069336      	70.64895       	67.96476       	70.71709       	73.428085      	77.600044      	78.11538       	74.07567       	72.05403       	74.35865       	77.987305      	79.42193       	80.31787       	82.09431       	83.49261       	77.6798        	73.09954       	
74.313095      	74.1473        	73.85219       	73.99615       	74.149284      	74.05537       	74.101395      	74.012146      	74.21107       	74.06544       	74.11711       	74.25165       	74.29758       	73.99056       	74.05659       	74.13177       	74.27438       	74.12976       	74.12652       	74.09776       	74.072914      	74.24907       	74.047516      	74.001434      	74.204254      	74.00212       	74.34208       	73.74932       	74.14589       	74.29068       	74.1431        	74.20409       	74.21836       	74.17335       	74.19172       	74.199615      	73.95662       	74.262184      	74.149284      	74.129845      	74.201065      	74.18823       	74.15829       	74.09318       	74.24079       	74.19793       	74.00129       	74.12436       	74.14569       	74.190994      	74.20387       	74.17584       	74.211426      	74.17662       	74.1486        	74.03738       	74.04531       	74.08661       	74.21374       	74.282814      	74.208954      	74.17812       	74.269966      	74.04865       	74.07134       	74.16561       	74.2057        	74.15117       	74.20696       	74.10338       	74.147194      	74.15808       	74.2151        	74.24436       	73.97756       	74.04158       	74.16657       	74.25529       	74.16075       	74.06591       	70.47486       	69.15896       	64.39289       	70.509514      	66.46282       	69.41665       	72.43175       	74.30938       	78.7311        	76.82374       	74.351006      	72.86806       	75.12633       	77.8476        	78.64597       	80.38153       	81.90095       	83.69272       	76.26892       	73.22987       	
74.14318       	74.166245      	74.01282       	73.99216       	74.14903       	73.96343       	74.079796      	74.15586       	74.14999       	74.09738       	74.097305      	74.22251       	74.118805      	73.96204       	74.09968       	74.18756       	74.31417       	74.15103       	74.071625      	73.99416       	74.29371       	74.23711       	74.05148       	74.00881       	74.23653       	74.27481       	74.07343       	73.86379       	73.90792       	74.18761       	74.16032       	74.39146       	74.15408       	74.16287       	74.23823       	74.18383       	74.01804       	74.12371       	74.24298       	74.19251       	74.06904       	74.09334       	74.15273       	74.20106       	74.16735       	74.044014      	74.26226       	74.02363       	74.104645      	74.13          	74.32812       	74.25469       	74.11641       	74.180756      	74.06271       	74.189255      	74.06731       	73.96196       	74.289         	74.32926       	74.10523       	74.11484       	74.13841       	74.23331       	74.08725       	74.201294      	74.16616       	74.08214       	74.21635       	74.092155      	74.120094      	74.146095      	74.18524       	74.12663       	74.12493       	74.24465       	74.04883       	74.13804       	74.0782        	74.096725      	73.68202       	68.19353       	66.71671       	65.46595       	68.798096      	68.2335        	73.379196      	75.16071       	75.717224      	75.961945      	74.22012       	73.20297       	75.2544        	77.66396       	77.97352       	80.29612       	82.51412       	83.88349       	73.821655      	73.64085       	
74.146545      	74.12642       	74.24406       	74.005325      	74.05187       	74.18809       	74.08668       	74.20029       	73.95361       	74.21862       	74.209236      	74.06225       	74.128555      	74.02008       	74.17203       	74.11017       	74.207504      	74.35375       	74.07262       	74.17064       	74.07568       	73.95392       	74.25863       	74.10632       	74.23451       	73.88817       	74.26665       	74.02416       	73.96054       	74.17238       	74.22532       	74.190445      	74.17712       	74.236855      	74.1041        	74.121056      	74.359215      	74.1889        	74.05093       	74.12968       	74.16568       	74.079475      	74.22028       	74.2084        	74.09706       	74.24611       	74.08461       	74.09855       	74.21732       	74.06161       	74.24141       	74.03172       	74.23853       	74.28745       	74.15386       	74.10065       	74.13982       	73.97393       	74.19172       	74.29982       	74.34436       	73.98087       	74.19459       	74.187996      	74.23129       	74.147865      	73.99866       	74.10941       	74.26105       	74.09712       	74.1062        	74.20329       	74.0747        	74.308556      	74.095215      	74.049835      	74.14384       	74.23769       	74.07465       	74.21522       	73.993         	72.17391       	68.51136       	67.178665      	66.747574      	69.01556       	71.77682       	73.11544       	74.748055      	75.635574      	74.25803       	73.76132       	75.59613       	76.9944        	78.06944       	80.593666      	82.94569       	81.36577       	73.16405       	73.89336       	
74.26887       	74.14052       	74.053734      	74.022446      	74.100655      	74.18557       	74.0922        	74.15308       	73.980995      	74.11572       	74.18624       	74.1806        	74.02518       	74.18606       	74.078926      	74.15162       	74.13504       	74.11307       	74.27759       	74.23703       	74.13952       	74.00702       	74.137405      	74.05469       	74.22936       	74.0799        	74.07926       	74.237366      	73.857414      	74.033485      	74.260086      	74.27638       	74.228226      	74.06641       	74.07768       	74.145096      	74.30433       	74.047195      	73.93427       	74.16847       	74.1515        	74.27103       	74.245445      	74.214645      	74.18214       	74.0285        	74.19258       	74.11423       	74.22995       	74.118095      	74.0615        	74.16266       	74.211685      	74.22242       	74.19402       	74.08391       	74.22848       	74.020096      	74.27188       	74.20417       	74.20146       	74.12872       	74.09969       	74.03847       	74.26647       	74.18081       	74.1183        	74.21915       	74.12952       	74.13032       	74.16354       	74.196846      	74.185844      	74.20876       	73.978546      	74.11074       	74.12956       	74.25345       	74.16832       	74.11338       	74.21607       	73.98784       	71.43325       	67.794365      	66.489044      	65.44376       	70.830315      	72.90945       	73.84309       	74.9662        	74.32829       	74.342606      	75.94652       	76.75153       	78.15775       	81.07218       	82.99243       	75.96065       	73.5411        	74.08675       	
74.270515      	74.07169       	74.41356       	74.09003       	74.11411       	74.06679       	74.15143       	74.03372       	74.17791       	74.09515       	74.19126       	74.06812       	74.13255       	74.14379       	74.1902        	74.195786      	74.09604       	74.0123        	74.1587        	74.18558       	74.24719       	74.144455      	74.00974       	74.043976      	74.13319       	74.395996      	74.020676      	74.04776       	73.966545      	74.19825       	74.22835       	74.19829       	74.10152       	74.14372       	74.2093        	74.19984       	74.21151       	73.99376       	73.9692        	74.063354      	74.1333        	74.233376      	74.26071       	74.37769       	74.14437       	74.10306       	74.104546      	74.26174       	74.2159        	74.03752       	74.1208        	74.23097       	74.172516      	74.224625      	74.16744       	74.11827       	74.1371        	73.96996       	74.30556       	74.24502       	74.17844       	74.29452       	74.08963       	74.09936       	74.22653       	74.102646      	74.07862       	74.24224       	74.11369       	74.2099        	74.11727       	74.177444      	74.183334      	74.29788       	74.12164       	74.072136      	74.16341       	74.18541       	74.24457       	73.903175      	74.12706       	74.155464      	74.09125       	71.4537        	66.39296       	67.47345       	71.2218        	72.43409       	73.38395       	73.85057       	74.32414       	74.92422       	75.96375       	77.254         	78.91543       	81.61996       	80.03953       	73.28008       	74.03085       	73.84266       	
74.233025      	74.086296      	74.14251       	74.11349       	73.965775      	74.255714      	74.11941       	74.12163       	74.0932        	74.21143       	74.0097        	74.161095      	74.178116      	74.08045       	74.174225      	74.16486       	74.20085       	73.95011       	74.19191       	74.191475      	74.11308       	74.2088        	74.00145       	74.19553       	74.29821       	74.02428       	74.17894       	74.023415      	74.03966       	74.134636      	74.117165      	74.387184      	74.09006       	74.16079       	74.16535       	74.18048       	74.145424      	74.03845       	74.07879       	74.091545      	74.09734       	74.03805       	74.270386      	74.25784       	74.29625       	74.36829       	74.15496       	73.911026      	74.168945      	74.12848       	74.15183       	74.10882       	74.289085      	74.292046      	74.06334       	74.24971       	74.13068       	74.18619       	74.05827       	74.208786      	74.21634       	74.25689       	74.12165       	74.042534      	74.11941       	74.18659       	74.16345       	74.32078       	74.103745      	74.126434      	74.09157       	74.25522       	74.124084      	74.19285       	74.07028       	74.22242       	74.040726      	74.2615        	74.18915       	74.049355      	74.13712       	74.002         	74.04323       	74.387184      	73.36533       	68.48441       	70.3043        	71.553734      	71.99332       	72.77187       	73.34679       	74.32735       	75.952515      	78.10279       	79.951294      	80.663925      	73.72562       	73.95058       	73.97555       	73.76824       	
74.2267        	74.13719       	73.97983       	74.24323       	74.167336      	74.23703       	73.97736       	74.11155       	74.09926       	74.097435      	74.16173       	74.04132       	74.20096       	74.26639       	74.19679       	74.10298       	74.01583       	74.12463       	74.16965       	74.267075      	74.03353       	74.16312       	74.08008       	74.107635      	74.14956       	74.00672       	74.36711       	73.99323       	73.94719       	74.0063        	74.15422       	74.37052       	74.29955       	74.201065      	74.06742       	74.20694       	74.2056        	74.1062        	74.142044      	74.15506       	74.034004      	74.19998       	74.06748       	74.17356       	74.148796      	74.303894      	74.291565      	74.115486      	74.126564      	74.13056       	74.20569       	74.23968       	74.092804      	74.025246      	74.21223       	74.16145       	74.20315       	74.14448       	74.2154        	74.30693       	74.156166      	74.11984       	74.25032       	74.200264      	74.098175      	74.14894       	74.25682       	74.14941       	74.10012       	74.121025      	74.22777       	74.15824       	74.156395      	74.113434      	74.17866       	74.22468       	74.03986       	74.237495      	74.22994       	74.17173       	74.035385      	74.03579       	74.07188       	74.378136      	74.04795       	73.9199        	74.14195       	72.52618       	69.52221       	70.910095      	72.6051        	73.44565       	75.73479       	78.83698       	79.79972       	73.61719       	74.17577       	74.18391       	74.03506       	73.86739       	
74.17574       	74.18033       	74.087654      	74.00796       	74.06791       	74.15458       	74.10988       	74.083496      	74.191315      	74.152695      	73.92667       	74.22857       	74.06034       	74.200226      	74.04144       	74.20393       	74.246796      	73.975044      	74.10221       	74.385826      	74.01613       	74.21932       	74.001526      	74.26553       	74.19636       	74.06002       	74.142265      	74.04918       	73.86415       	74.147156      	74.20773       	74.33619       	74.23286       	74.131714      	74.065315      	74.25619       	74.159134      	74.18212       	74.189735      	74.1538        	74.23508       	74.09138       	74.221         	74.175705      	74.11326       	74.00992       	74.246796      	74.12035       	74.11444       	74.33481       	74.15718       	74.17473       	74.017876      	74.23056       	73.98709       	74.24531       	74.168976      	74.0411        	74.25691       	74.3202        	74.04306       	74.22506       	74.031364      	74.21542       	74.22383       	74.17375       	74.09715       	73.92727       	74.3984        	74.14952       	74.16438       	74.07174       	74.17399       	74.279236      	74.11568       	74.28873       	74.05478       	74.11739       	74.082184      	74.2786        	74.056984      	74.114624      	74.19293       	74.02813       	73.787766      	74.27863       	74.13577       	74.10506       	74.06285       	73.53909       	72.676445      	74.1226        	75.94477       	74.36684       	74.29353       	74.214966      	74.14198       	74.00111       	74.26359       	74.22978       	
74.146904      	74.30849       	74.1859        	74.08988       	74.11985       	74.26466       	74.03904       	74.07134       	74.220924      	73.98747       	74.22627       	74.1696        	74.19225       	74.26699       	74.02362       	74.09843       	74.12589       	74.15419       	74.28174       	74.13747       	74.01501       	74.06343       	74.23355       	74.096535      	74.23881       	74.12495       	74.030876      	74.035545      	74.061676      	74.12246       	74.08847       	74.442154      	74.11346       	74.10435       	74.13295       	74.23731       	74.17838       	74.03811       	74.02252       	74.30695       	74.16104       	74.16912       	74.22297       	74.01298       	74.21851       	74.18201       	74.1726        	74.074295      	74.14778       	74.14509       	74.17193       	74.20552       	74.26276       	74.09421       	74.229225      	74.1392        	74.0637        	74.14353       	74.13583       	74.22285       	74.059586      	74.16672       	74.268845      	74.0971        	74.169         	74.32497       	74.0735        	74.24652       	74.070404      	74.16954       	74.21334       	74.11653       	74.06821       	74.11583       	74.25003       	74.140076      	74.07538       	74.28594       	74.13583       	74.132515      	73.9932        	74.18941       	74.287926      	74.20015       	74.03768       	74.23769       	74.06468       	74.100746      	74.251274      	74.04526       	74.00685       	74.26394       	74.38817       	74.16183       	74.31068       	73.994576      	74.10404       	74.206276      	74.26653       	73.700294      	
74.227905      	74.400826      	74.03869       	73.89767       	74.14036       	74.11612       	74.02133       	74.27183       	74.00397       	74.11898       	74.17375       	74.13581       	73.87406       	74.18175       	74.33427       	74.04153       	74.14222       	74.124306      	74.25258       	74.04881       	74.26719       	74.02116       	74.05835       	74.128334      	74.09682       	74.271416      	74.12766       	74.09113       	73.99575       	74.103584      	74.187584      	74.17829       	74.201164      	74.17762       	74.00501       	74.26678       	74.002335      	74.17431       	74.21049       	74.0835        	74.26957       	74.196686      	74.115585      	74.11099       	74.16353       	74.098625      	74.11855       	74.24513       	74.15038       	73.95682       	74.15407       	74.18638       	74.25372       	74.27485       	73.96551       	74.036545      	74.45671       	74.055984      	74.25952       	74.12649       	74.11303       	74.36403       	74.1535        	74.09781       	74.23754       	74.19337       	74.08783       	74.15715       	74.12413       	74.1963        	74.225555      	74.06664       	74.21462       	74.13474       	74.126114      	74.08665       	74.174805      	74.19871       	74.10213       	74.18953       	74.17338       	74.123024      	74.2337        	74.14638       	74.1585        	74.25418       	74.110916      	74.09481       	74.20678       	73.71502       	73.848366      	74.35945       	74.23221       	74.143135      	74.10154       	74.34393       	74.236305      	73.91959       	74.275566      	73.9039        	
74.2099        	74.33583       	74.0355        	73.90419       	74.293564      	74.04942       	74.10293       	74.14725       	74.018135      	74.14718       	74.12482       	74.05893       	74.10322       	74.17526       	73.994644      	74.384026      	74.107185      	74.08456       	74.23607       	74.00559       	74.261986      	74.143974      	74.08347       	74.24767       	74.07945       	74.1779        	74.21212       	73.953835      	73.969604      	74.12817       	74.153206      	74.25234       	74.217         	74.292725      	74.17693       	74.134155      	74.12621       	74.157974      	74.21654       	74.23367       	74.150375      	74.06964       	74.1859        	74.087654      	74.11035       	74.14088       	74.06859       	74.34349       	74.05904       	74.26673       	74.1549        	74.13817       	74.21762       	73.93327       	74.17238       	74.039154      	74.412926      	74.12397       	74.06332       	74.30276       	74.23977       	74.145325      	74.090805      	74.25075       	74.20928       	74.10143       	74.22142       	73.9647        	74.39134       	74.14733       	74.16817       	74.02289       	74.235504      	74.182724      	74.11585       	74.22532       	73.96469       	74.32935       	74.05555       	74.15427       	74.197334      	73.96444       	74.24485       	74.25557       	74.168274      	74.13984       	74.13471       	74.2678        	74.13246       	73.92187       	74.014786      	74.23179       	74.32776       	74.260704      	74.066315      	74.253456      	74.215034      	74.16352       	74.08082       	73.840454      	
74.20732       	74.3629        	74.11208       	73.95132       	73.97213       	73.98111       	74.18742       	74.07834       	74.16838       	74.18651       	74.14091       	74.03464       	74.05392       	74.120766      	74.23378       	74.15948       	74.12896       	74.14452       	74.07257       	74.114044      	73.99396       	74.304214      	74.11737       	74.21131       	74.10721       	74.04464       	74.23039       	73.935036      	74.04389       	74.32765       	74.03694       	74.16212       	74.25806       	74.10768       	74.299805      	74.220215      	74.04368       	74.2256        	74.075745      	74.33611       	74.11428       	74.08652       	74.212105      	74.24827       	74.182686      	74.078835      	74.158844      	74.16983       	74.139465      	74.16198       	74.25353       	74.13487       	74.219124      	74.076965      	74.15927       	74.16838       	74.20531       	73.98318       	74.20822       	74.2274        	74.181786      	74.281784      	74.1632        	74.04443       	74.166176      	74.16304       	74.16796       	74.22448       	74.21136       	74.10852       	74.22636       	74.09109       	74.19209       	74.25729       	74.081406      	74.1906        	73.96864       	74.186424      	74.12546       	74.1137        	74.24552       	74.14677       	74.237946      	74.11616       	74.250206      	74.11351       	74.198166      	74.019005      	74.11085       	74.068726      	74.01864       	74.25119       	74.17724       	74.129105      	74.17517       	74.08452       	74.0551        	74.29869       	74.08445       	74.28797       	
74.23488       	74.136345      	74.05404       	74.080635      	74.12869       	74.19115       	74.11772       	74.08129       	74.13782       	73.97285       	74.14121       	74.01914       	74.14081       	74.420586      	73.98626       	74.2245        	74.17723       	74.00084       	74.24928       	74.08429       	74.15543       	74.2056        	74.07755       	74.104385      	74.013885      	74.29431       	74.125015      	74.01038       	74.14222       	74.13723       	74.19018       	74.13148       	74.21432       	74.15728       	74.109955      	74.04561       	74.224205      	74.18632       	74.024574      	74.248955      	74.22914       	73.81142       	74.10854       	74.12094       	74.56386       	74.01575       	74.2958        	74.0612        	74.235214      	74.15173       	74.1607        	74.10331       	74.12687       	74.28556       	73.99181       	74.262596      	74.190285      	74.16259       	74.19711       	74.02188       	74.26683       	74.16029       	74.2476        	74.29575       	74.03124       	74.21644       	74.094475      	74.24549       	74.193924      	74.07008       	74.363235      	74.02034       	74.197235      	74.24783       	74.04329       	74.23158       	74.17676       	74.06982       	74.15376       	74.24979       	74.09828       	74.14043       	74.153625      	74.0623        	74.24833       	73.89363       	74.35004       	74.21224       	74.09843       	74.025566      	74.12506       	74.28449       	74.27491       	74.197525      	73.98922       	74.290054      	73.82684       	74.226295      	74.27729       	74.10146       	
74.149994      	74.22249       	74.24865       	74.065956      	74.11122       	73.930984      	74.183945      	74.072655      	74.15381       	74.07609       	74.065315      	74.05679       	74.27339       	74.074234      	74.04756       	74.19507       	74.09636       	74.26116       	74.05531       	74.130035      	74.12337       	74.169266      	74.18523       	74.12815       	74.193954      	73.96708       	74.24129       	74.16033       	74.08503       	74.04425       	74.19962       	74.02582       	74.04903       	74.2128        	74.2581        	74.207535      	74.16684       	74.00136       	74.28256       	74.215996      	73.96506       	74.0454        	74.15975       	74.20418       	74.43176       	74.19679       	74.018524      	74.20804       	74.30408       	74.020584      	74.07101       	74.23937       	74.24694       	74.095116      	74.18676       	74.1391        	74.093414      	73.967186      	74.150024      	74.263016      	74.31409       	74.12312       	73.994705      	74.13478       	74.34356       	74.10324       	74.207794      	74.210815      	74.17774       	73.93408       	74.24261       	74.24753       	74.30421       	73.95242       	74.13788       	74.20999       	74.25799       	74.13811       	74.17104       	74.118774      	74.23345       	74.17937       	74.14234       	74.15771       	74.19772       	73.85654       	74.27457       	74.20747       	74.104225      	73.91218       	74.08072       	74.27803       	74.412704      	74.09841       	74.112         	74.14547       	74.17409       	74.11448       	74.20276       	74.13406       	
74.28628       	74.21145       	74.10068       	73.94123       	73.99685       	74.000824      	74.1476        	74.236786      	73.96818       	74.32948       	74.09321       	74.214714      	74.08407       	74.0797        	74.05221       	74.24754       	74.13976       	74.07631       	74.081825      	74.04409       	74.23491       	74.23372       	74.10535       	74.164795      	74.24217       	74.04815       	74.1681        	73.89306       	74.25384       	74.15936       	74.0739        	74.17843       	74.12292       	74.16705       	74.33785       	74.13749       	74.03939       	74.20894       	74.14086       	74.03754       	74.186516      	74.026085      	74.10982       	74.07427       	74.32016       	74.3778        	74.15524       	74.10931       	74.18326       	74.18152       	74.143654      	74.09389       	74.214325      	74.182236      	74.0556        	74.14173       	74.17367       	74.01308       	74.27504       	74.23285       	74.29048       	74.37127       	73.999176      	74.0653        	74.02532       	74.347015      	74.320854      	73.99545       	74.078926      	74.24607       	74.31054       	74.02609       	74.231804      	74.07256       	74.18486       	74.09159       	74.02216       	74.30017       	74.21641       	73.96611       	74.166885      	74.18604       	74.35676       	74.13793       	74.00475       	74.27098       	74.21682       	74.119736      	73.94007       	74.14493       	73.80851       	74.42342       	74.36515       	74.005745      	74.15102       	74.10116       	74.11431       	74.1607        	74.26306       	74.17753       	
74.23341       	74.13473       	74.17873       	74.04244       	73.94549       	74.14522       	74.22154       	74.19404       	74.06106       	74.22866       	74.10835       	74.14725       	73.96712       	74.06431       	74.13665       	74.04742       	74.17618       	74.15736       	74.26701       	74.21651       	74.08271       	74.21187       	74.00673       	74.20644       	74.06592       	74.13502       	74.0469        	74.08205       	74.06858       	74.19378       	74.23129       	74.12968       	74.17495       	74.16111       	74.2135        	74.12303       	74.02207       	74.219215      	74.06603       	73.84716       	74.1338        	74.44998       	74.13036       	73.97316       	74.34309       	74.32011       	74.0936        	74.007095      	74.26359       	74.10536       	74.183525      	74.19129       	74.33412       	73.96275       	74.23621       	74.08471       	73.88303       	74.25088       	74.18663       	74.505394      	74.12758       	74.28234       	74.32213       	74.04099       	74.18549       	74.13514       	74.06613       	74.079475      	73.97224       	74.15978       	74.38251       	74.124886      	74.31212       	74.186104      	73.99628       	74.22898       	73.97033       	74.20083       	73.993805      	73.99302       	74.48661       	74.21477       	74.11502       	74.108116      	74.26203       	74.304375      	74.10162       	74.011765      	74.214226      	73.939125      	73.99108       	74.26368       	74.27192       	74.22883       	74.21304       	74.20651       	74.07999       	74.22815       	74.150795      	74.17022       	
74.276344      	74.18441       	74.259346      	74.13455       	74.077644      	74.11261       	74.15671       	74.160904      	74.08217       	74.07467       	74.16238       	74.03549       	74.17376       	74.0127        	74.151184      	74.234344      	74.164604      	74.16648       	74.134415      	74.20264       	74.09813       	74.07651       	74.12666       	74.24001       	74.271675      	74.05489       	74.14647       	73.86852       	74.033165      	74.40126       	74.069916      	74.243034      	74.18104       	74.031235      	74.25901       	74.007904      	74.01136       	74.2429        	74.24862       	73.870605      	74.220085      	74.2022        	74.05985       	74.29761       	73.96641       	74.373535      	74.27314       	73.948456      	74.15328       	74.32048       	74.30957       	74.08788       	74.12057       	74.22877       	74.18633       	73.98698       	74.087135      	74.274536      	74.16763       	74.432205      	74.05259       	74.188995      	74.16358       	74.08996       	74.32067       	74.41362       	73.91925       	74.0835        	74.18018       	74.05846       	74.21522       	74.057274      	74.23029       	73.98006       	74.17494       	74.17436       	74.3317        	74.22162       	74.124435      	74.152885      	74.095184      	74.11638       	74.12512       	74.12989       	74.14075       	74.2025        	74.12957       	74.27775       	74.171974      	73.83576       	73.92478       	74.437416      	74.383934      	74.14751       	74.0669        	74.180214      	74.18664       	74.13111       	74.20667       	74.183365      	
74.202286      	74.10145       	73.99209       	74.09057       	74.081055      	74.16519       	74.22842       	74.132164      	74.03942       	74.1437        	74.08975       	74.234375      	73.95791       	74.25484       	74.062294      	74.1887        	74.0616        	74.119804      	74.2088        	74.26686       	73.992645      	74.122604      	74.21039       	74.35513       	74.12993       	73.95186       	74.051155      	74.12184       	74.11391       	74.13664       	74.38619       	74.14389       	74.12527       	74.15874       	74.19605       	74.10655       	73.880196      	74.36634       	74.1591        	73.997284      	74.07233       	74.26593       	74.06987       	74.11155       	74.12941       	74.3064        	74.30974       	74.16537       	74.06987       	74.294106      	74.1503        	74.14009       	74.2114        	74.01815       	74.22885       	73.863014      	74.13497       	74.447975      	74.17072       	74.357864      	74.08219       	74.033394      	74.35004       	73.909904      	74.30915       	74.25563       	74.06679       	74.23598       	74.124886      	74.16354       	74.15657       	74.240906      	74.066505      	74.32989       	73.92037       	74.1754        	74.08438       	74.22075       	74.13113       	74.18881       	74.15391       	74.16314       	74.1666        	74.26718       	74.14522       	74.06681       	74.200874      	74.03623       	74.07567       	74.182785      	74.23182       	74.14851       	74.22111       	74.12085       	74.12035       	74.23705       	74.049706      	74.17175       	74.15774       	74.25354       	
74.11771       	74.18554       	74.14449       	74.010574      	74.11219       	73.9366        	74.19269       	73.99475       	74.04993       	74.13167       	74.19759       	74.11688       	74.02025       	74.14859       	74.292816      	74.25045       	74.1508        	74.13972       	74.072         	74.09564       	74.23882       	74.123886      	74.034096      	74.231804      	74.12018       	74.03494       	74.294495      	74.15849       	73.7579        	74.15001       	74.22986       	74.289894      	74.11199       	74.23704       	74.14327       	74.138115      	74.078026      	74.1681        	74.12486       	74.11865       	74.106674      	73.849045      	74.40404       	74.282555      	74.080376      	74.30968       	74.14942       	74.16787       	74.15624       	74.13103       	73.997086      	74.15004       	74.27414       	74.182434      	74.08338       	74.21013       	74.07719       	74.179085      	74.17089       	74.55863       	74.02139       	73.63824       	73.735374      	74.325645      	74.29067       	73.90678       	74.213776      	74.3953        	74.12267       	73.89236       	74.05708       	74.38019       	74.23478       	73.95215       	74.035095      	74.27374       	74.31588       	74.193085      	74.03858       	73.80684       	74.26276       	74.29857       	74.1514        	74.07166       	74.255875      	74.40212       	74.19319       	74.17661       	74.02282       	74.22287       	74.00752       	74.014565      	74.051285      	74.22901       	74.29168       	74.16156       	74.142746      	74.310715      	74.120186      	73.96975       	
74.323006      	74.20791       	74.07459       	74.07377       	74.015945      	73.84696       	74.06305       	74.27653       	74.035995      	74.232414      	74.08059       	74.11921       	74.21597       	74.15721       	74.02958       	74.14428       	74.09732       	74.055824      	74.17941       	74.23219       	74.013176      	74.25803       	74.03443       	74.07282       	74.28132       	74.110695      	74.255325      	73.90928       	74.00699       	74.034775      	74.2331        	74.161125      	74.26881       	74.23097       	74.26998       	74.17043       	74.1848        	74.01067       	74.37428       	74.12949       	74.01795       	74.014175      	74.235954      	74.28114       	73.96727       	74.1139        	74.086365      	74.238106      	74.2718        	74.10763       	74.19781       	74.15557       	74.07916       	74.29947       	74.22198       	74.15243       	73.83248       	74.00776       	74.60186       	74.16387       	74.193474      	74.15875       	74.195816      	74.194664      	74.1722        	74.012634      	74.21559       	74.18961       	73.97515       	74.288956      	74.24329       	74.15418       	74.1654        	74.06657       	74.24076       	74.22509       	73.98148       	74.182846      	74.18677       	74.12525       	74.07682       	74.248985      	74.019905      	74.14043       	74.38039       	74.16518       	74.10237       	74.1643        	74.30746       	73.799385      	74.25678       	74.30455       	74.0184        	74.2661        	74.13689       	74.03267       	74.29622       	74.15226       	74.14047       	74.09791       	
74.29525       	74.30327       	74.12622       	74.01549       	73.841095      	74.01499       	74.22878       	74.21616       	73.99344       	74.111916      	74.2395        	74.25653       	74.024475      	74.12374       	74.28167       	73.997765      	74.003365      	74.21903       	74.16102       	74.18773       	74.092445      	74.21582       	74.06357       	74.23601       	74.03947       	74.2036        	74.2581        	73.94103       	73.94194       	74.32738       	74.00408       	74.13017       	74.12786       	74.02164       	74.35492       	74.34199       	74.0628        	74.30722       	74.21576       	74.22415       	74.12779       	74.07603       	74.09759       	74.296364      	74.09402       	74.106804      	74.03823       	74.24894       	74.14207       	74.11496       	74.13442       	74.33648       	74.14009       	74.03509       	74.22226       	74.16354       	74.017105      	74.172966      	74.29045       	74.3605        	74.13124       	74.24869       	74.049706      	74.15843       	74.20502       	74.305466      	73.89896       	74.248856      	74.09993       	74.25778       	74.20961       	74.125786      	74.01378       	74.22635       	74.34911       	74.07772       	74.06939       	74.222435      	74.15652       	74.14877       	74.161194      	74.118706      	74.06015       	74.29645       	74.11756       	74.21628       	74.17956       	73.91985       	74.25821       	74.0135        	74.10435       	74.21468       	74.180305      	74.18025       	74.16515       	74.22156       	74.078         	74.16829       	74.2279        	74.112976      	
74.31155       	74.18263       	74.34889       	74.17352       	73.85331       	73.99033       	74.028         	74.232025      	74.019775      	74.22451       	74.15853       	74.07022       	74.12339       	74.00268       	74.27413       	74.042755      	74.070885      	74.21279       	73.910545      	74.450066      	74.19034       	74.23366       	74.071205      	74.06099       	74.05729       	74.25309       	74.237854      	73.9374        	74.197014      	74.11471       	74.04796       	73.915565      	74.30005       	73.946396      	74.201126      	74.39271       	74.311226      	74.20647       	74.0353        	74.205315      	74.07231       	74.10807       	74.13626       	74.198135      	74.01985       	74.15239       	74.30272       	74.22189       	74.044525      	73.96169       	74.15029       	74.37223       	74.18151       	74.12358       	74.15015       	74.02933       	74.097336      	74.35649       	74.19786       	74.27431       	74.14586       	74.26827       	73.97582       	74.295204      	74.20382       	74.27342       	74.11476       	74.01219       	74.0366        	74.25313       	74.2789        	74.27833       	74.05689       	74.121346      	74.11998       	74.27158       	74.20979       	74.06676       	74.16951       	73.91955       	74.38485       	74.24817       	74.105446      	74.241585      	74.04617       	74.244125      	74.14741       	74.145325      	74.21965       	73.759445      	73.973946      	74.13612       	74.226295      	74.2938        	74.16626       	74.37014       	73.95328       	74.132774      	74.14698       	74.07562       	
74.174706      	74.262665      	74.13526       	74.034355      	73.972176      	74.06621       	74.04189       	74.14777       	74.1141        	74.207664      	74.074554      	74.00904       	74.15476       	74.18118       	74.10495       	74.13754       	73.96355       	74.123886      	74.26401       	74.20547       	74.14919       	74.19762       	74.09431       	74.24335       	74.14739       	74.10868       	74.11463       	74.03519       	74.15717       	74.08524       	74.134834      	74.22406       	74.064255      	73.94715       	74.234634      	74.449936      	74.17365       	73.98539       	74.02119       	74.28352       	74.31741       	74.06197       	74.10608       	74.08953       	74.01701       	74.11068       	74.42883       	74.213264      	73.793526      	74.14393       	74.22201       	74.290344      	74.11874       	74.11469       	74.075424      	74.183716      	74.31977       	74.35392       	74.43194       	74.054306      	74.12488       	74.15673       	74.19707       	74.28265       	74.09115       	74.02034       	74.290794      	74.13361       	74.145805      	73.9821        	74.21436       	74.37123       	74.05686       	74.01651       	74.31225       	74.26547       	73.98184       	74.28987       	74.05961       	74.26097       	74.16857       	73.966774      	74.090454      	73.98699       	74.22915       	74.35305       	74.04485       	74.163666      	74.05828       	74.35483       	73.994545      	74.21632       	73.936806      	73.90009       	74.34238       	74.35089       	74.30751       	74.19783       	74.010445      	74.30395       	
74.10602       	74.35539       	74.2407        	73.90051       	73.984474      	74.127205      	74.26234       	74.01566       	74.06702       	74.088394      	74.21847       	74.10161       	74.331604      	73.99698       	74.100876      	74.16564       	74.09976       	74.185715      	74.08469       	73.97682       	74.3027        	74.213745      	74.18445       	74.16588       	74.16172       	73.915016      	74.19853       	74.24577       	74.15169       	74.089226      	74.16809       	74.038994      	74.10278       	74.146965      	73.921265      	74.21572       	74.25153       	74.31925       	74.09829       	74.12735       	74.24625       	74.25882       	73.9268        	74.118675      	74.20487       	74.22          	74.04602       	73.98446       	74.101524      	74.25123       	74.27345       	74.00341       	74.21791       	74.06573       	74.3306        	74.110016      	74.15332       	74.17276       	74.347046      	74.147446      	74.22276       	74.274895      	74.12432       	74.17371       	74.244545      	74.11743       	74.26257       	74.13646       	74.16476       	73.993805      	74.07488       	74.02627       	74.30556       	74.220505      	74.12629       	74.42928       	73.957924      	74.09587       	74.058586      	74.22305       	74.18425       	74.027756      	74.244026      	74.221924      	74.068375      	74.160645      	74.23466       	74.06777       	74.20874       	74.12881       	73.927345      	74.17267       	73.96725       	74.237686      	74.08956       	74.38821       	74.33665       	74.08907       	74.18642       	74.174835      	
74.25306       	74.169556      	74.30461       	74.08151       	74.04798       	74.12713       	74.00545       	74.265785      	74.264015      	74.1454        	74.068634      	74.06239       	74.258705      	74.1674        	74.05685       	74.140854      	74.18384       	74.218765      	74.143036      	74.18373       	74.07961       	74.04424       	73.97467       	74.36703       	74.098366      	74.110435      	74.067795      	73.864105      	74.08456       	74.2592        	74.21724       	74.22867       	74.11027       	74.26702       	73.96856       	74.15245       	74.142525      	74.42151       	74.170135      	73.93959       	74.02506       	74.117966      	74.32966       	74.146385      	73.99242       	74.081795      	74.1727        	74.10722       	74.28908       	73.98809       	74.38724       	74.00135       	74.18697       	74.2249        	74.1443        	74.222         	74.292175      	73.99866       	74.33183       	74.30231       	74.225784      	74.02024       	74.090805      	74.27132       	74.07269       	74.16468       	74.13133       	74.119484      	74.26742       	74.05171       	74.317215      	74.03667       	74.14385       	74.297844      	74.06819       	74.129684      	74.24655       	74.02094       	74.32942       	74.0236        	74.00871       	74.2938        	74.14978       	74.16832       	74.2038        	74.20757       	74.088554      	74.16639       	74.06522       	73.991516      	74.30337       	74.243546      	74.392426      	74.08034       	74.09137       	74.19387       	73.975075      	74.64484       	73.30094       	74.89075       	
74.134415      	74.22851       	74.054214      	74.09084       	74.144775      	73.99405       	74.14537       	74.10905       	74.172165      	74.12877       	74.13661       	74.193565      	74.162926      	74.17249       	74.05291       	74.21474       	74.08886       	74.09003       	74.118126      	74.06732       	74.254845      	74.06729       	74.039406      	74.40273       	74.13412       	74.14702       	74.04017       	74.2034        	73.96643       	74.10576       	74.27565       	74.17189       	74.04023       	74.358376      	73.99366       	74.03633       	74.232414      	74.210106      	74.169266      	74.26049       	73.99171       	74.12427       	74.128914      	74.10685       	74.263145      	74.19273       	74.23449       	74.25491       	74.367035      	74.010704      	74.14796       	74.36593       	74.46816       	73.81883       	73.60518       	74.23421       	74.36164       	73.915825      	74.29501       	74.017456      	74.14933       	74.23757       	74.064735      	73.9848        	74.12064       	74.41677       	74.20922       	73.96801       	74.173035      	74.048645      	74.17601       	74.318436      	74.10318       	74.12298       	74.15171       	73.97276       	74.24204       	74.082375      	74.16653       	74.09849       	74.12355       	74.2938        	74.102905      	74.04266       	74.15644       	74.13939       	74.085655      	74.202385      	74.20306       	71.16691       	73.46471       	72.85951       	74.98859       	75.68998       	73.31687       	71.91032       	73.860016      	74.48297       	73.54402       	74.641335      	
74.15449       	74.22675       	74.07395       	73.93662       	74.01933       	73.888306      	74.01365       	74.10264       	74.243866      	74.14638       	74.06667       	74.177666      	74.19946       	74.06816       	74.16617       	74.19933       	74.0343        	74.05333       	74.193794      	74.10641       	74.10469       	74.19092       	73.91243       	74.36354       	74.04823       	74.16332       	74.20445       	74.22529       	73.69482       	73.708725      	75.10465       	73.82778       	73.74392       	74.80448       	73.76741       	73.70723       	73.65622       	74.08921       	68.26546       	74.48534       	71.398384      	72.97577       	74.9726        	72.38431       	73.32531       	76.54872       	71.24693       	68.34636       	74.264946      	73.692726      	72.4874        	74.28353       	72.01381       	74.84865       	74.958626      	71.18446       	74.06391       	74.07638       	76.34995       	78.98922       	73.98171       	74.00648       	73.98977       	74.150215      	73.910324      	74.30775       	74.11829       	74.04264       	74.19219       	74.13916       	74.129814      	74.24262       	74.02556       	74.127716      	74.24698       	74.10234       	74.0438        	74.185776      	74.17339       	74.053535      	74.27236       	74.15699       	74.09721       	74.2565        	73.98964       	74.004585      	74.24141       	74.21814       	74.2489        	67.44286       	73.15386       	73.928566      	74.25536       	74.131546      	74.30923       	73.92364       	74.23569       	74.30314       	74.19064       	74.264145      	
74.17075       	74.262886      	74.01445       	74.04662       	74.104675      	73.973114      	74.10336       	74.216324      	74.064445      	74.115425      	74.07235       	74.118095      	74.32579       	74.37114       	74.24917       	74.23217       	74.067894      	73.95064       	74.114075      	73.92794       	73.99062       	74.24882       	73.986145      	73.76167       	74.02711       	74.09745       	73.97127       	70.092735      	74.53689       	73.93132       	74.071495      	74.0299        	74.28258       	74.38459       	73.92184       	74.00671       	73.73748       	73.94429       	73.773346      	74.142975      	73.96497       	73.48632       	73.99034       	74.10178       	74.29436       	74.06101       	74.323296      	73.37543       	74.09472       	73.85423       	74.073135      	74.03618       	74.05881       	74.11219       	74.14729       	74.06047       	73.66723       	74.10025       	75.510025      	80.44513       	73.73631       	73.95929       	74.04827       	74.21448       	73.99719       	73.84281       	74.08171       	73.83531       	74.07406       	73.9394        	74.06619       	74.15414       	73.87423       	74.111496      	74.210754      	74.33037       	73.96391       	74.057144      	74.07566       	74.1884        	74.24449       	74.02052       	73.8984        	74.15586       	73.71988       	74.153496      	74.18354       	74.24968       	73.900375      	69.33952       	73.34337       	73.98852       	74.03919       	74.067635      	74.17405       	74.139         	74.1916        	74.24704       	74.144936      	74.102646      	
74.19293       	74.10106       	74.038155      	74.04115       	74.37474       	74.09617       	74.04351       	74.18881       	74.105         	74.050995      	74.24436       	73.98263       	74.14065       	74.09855       	74.25009       	74.08068       	74.04468       	74.18547       	74.09836       	74.07208       	74.23126       	74.15259       	74.052025      	74.14963       	74.10742       	73.995316      	74.08737       	65.02364       	70.09412       	74.00936       	74.55484       	74.230995      	74.269684      	74.1124        	74.2014        	74.1751        	74.21012       	74.06552       	74.14006       	74.320564      	74.07506       	74.37367       	73.9234        	74.228325      	74.166145      	73.994415      	74.29646       	74.11872       	74.15291       	74.066826      	74.28088       	74.09426       	74.27033       	74.18528       	74.15249       	74.07039       	74.009315      	74.25097       	75.74226       	80.56229       	73.988846      	73.864044      	74.17307       	74.00524       	74.150635      	74.06859       	74.14235       	74.1685        	74.09259       	73.911415      	74.10216       	74.319534      	74.06907       	74.20504       	74.053986      	74.18066       	74.23756       	74.112305      	74.193306      	74.193214      	74.092224      	74.08566       	74.180305      	74.22163       	74.091324      	74.03488       	74.125885      	74.156456      	74.21062       	68.79554       	73.16582       	73.83126       	74.383194      	74.17315       	74.11937       	74.19359       	74.20765       	74.290474      	74.117134      	74.21191       	
74.21502       	74.25235       	74.21219       	73.983894      	74.13815       	74.09089       	74.05756       	74.17453       	74.23529       	74.07731       	74.144264      	74.033714      	74.30286       	74.16294       	74.05202       	74.059616      	74.145325      	74.33835       	74.19699       	73.88195       	74.15749       	74.168945      	74.1673        	74.085014      	74.10996       	74.11625       	74.14163       	71.35987       	68.14808       	73.85777       	74.48062       	74.113884      	74.20318       	74.13763       	74.1803        	74.16254       	74.290215      	74.10226       	74.08467       	74.23549       	74.211205      	74.22891       	74.05438       	74.32606       	73.97188       	74.08323       	74.21705       	74.30664       	74.19374       	74.12998       	74.15087       	74.132225      	74.06548       	74.34517       	74.145744      	74.21644       	74.049644      	74.02303       	75.30492       	80.90724       	74.098404      	73.76198       	73.97386       	74.07482       	74.19703       	74.09976       	74.009865      	74.24811       	74.08324       	74.04891       	74.23107       	74.16425       	74.125755      	74.135704      	74.10984       	74.203865      	74.05246       	74.08872       	74.250305      	74.18055       	74.13948       	74.14529       	74.02228       	74.09278       	74.23985       	74.075356      	74.20727       	74.03114       	74.306885      	68.755066      	73.79009       	73.97687       	74.28955       	74.101776      	74.09864       	74.201454      	74.28024       	74.33358       	74.1786        	74.148476      	
74.08982       	74.15188       	74.09145       	73.99962       	74.04343       	74.18183       	74.20143       	73.97008       	74.28151       	74.12206       	74.08336       	74.08099       	74.20119       	74.025734      	74.06212       	73.99996       	74.169495      	74.29612       	74.04002       	74.01343       	74.10973       	74.1889        	74.110985      	74.016304      	74.12877       	74.14965       	74.10815       	73.78507       	64.5614        	73.47095       	74.22361       	74.25112       	74.490204      	74.1531        	74.50188       	73.98918       	74.25908       	74.18206       	74.319115      	74.076294      	74.137405      	74.17025       	74.13823       	74.13483       	74.181755      	74.06322       	74.053444      	74.08347       	74.2375        	74.20104       	74.12244       	74.01319       	74.106         	73.975815      	74.36003       	74.23915       	74.0699        	74.039185      	75.54273       	80.44259       	74.10588       	73.917206      	73.9489        	73.854294      	74.11843       	74.07126       	73.99789       	74.065445      	73.94725       	74.1589        	73.750305      	73.922165      	74.21425       	73.919         	74.09176       	73.8114        	74.191666      	74.12014       	74.11384       	73.91344       	73.91203       	74.115814      	73.843124      	74.11802       	73.97751       	74.29481       	74.09886       	73.88333       	74.04608       	67.50474       	73.894356      	71.08962       	73.34826       	74.37313       	74.01981       	74.11271       	74.14133       	74.0928        	74.13785       	74.23396       	
74.24247       	74.152405      	74.16481       	73.903725      	73.94944       	74.049416      	74.1314        	74.11183       	74.09255       	74.169815      	74.20497       	74.06144       	74.0637        	74.12123       	74.04236       	74.250755      	74.181595      	74.19184       	74.08106       	74.02198       	74.23373       	74.03454       	74.17782       	74.10181       	74.108376      	74.2092        	74.144005      	72.07685       	67.71514       	74.38949       	74.204254      	74.1387        	74.28772       	74.14475       	74.26394       	74.00473       	74.24299       	74.04181       	74.24327       	74.19227       	74.154076      	74.17957       	74.12987       	74.25269       	74.16128       	74.16308       	74.23646       	74.04363       	74.1669        	74.14505       	74.1832        	74.104744      	74.02678       	74.2606        	74.14565       	74.28391       	74.10423       	74.02402       	75.69998       	80.61163       	74.49579       	73.79693       	73.93508       	74.07519       	74.22647       	74.02279       	74.213104      	74.08836       	74.08068       	74.06321       	74.08309       	74.160675      	74.228165      	74.053185      	74.19079       	74.19809       	74.04119       	74.11371       	74.06226       	74.229065      	74.113625      	74.21619       	74.15578       	74.10112       	74.0254        	74.17095       	74.35296       	74.111916      	74.00805       	70.02584       	73.35335       	73.67202       	74.15636       	74.407295      	74.38076       	74.08247       	74.051216      	74.089455      	74.36051       	74.158066      	
74.21772       	74.19359       	74.1534        	74.00636       	73.98989       	74.00202       	74.18845       	74.17761       	74.039185      	74.124435      	74.181564      	74.14462       	74.10095       	74.05701       	74.13773       	74.23259       	74.071144      	74.112915      	74.25702       	73.96522       	74.20189       	74.18353       	73.93906       	74.14252       	74.13331       	74.11547       	74.04819       	69.23987       	73.47154       	73.86304       	74.18744       	74.29815       	74.085464      	74.22621       	74.23339       	74.04338       	74.2963        	73.97735       	74.257         	74.23247       	74.10824       	74.02288       	74.22507       	74.24582       	74.02863       	74.35999       	74.03401       	74.23727       	74.07006       	74.11061       	74.187355      	74.19468       	74.172066      	74.2022        	74.219475      	74.16837       	74.02002       	74.129654      	75.36411       	80.59029       	74.167694      	73.69775       	74.141304      	73.96226       	74.16093       	74.12971       	74.102066      	74.196625      	74.02589       	74.178116      	74.18392       	74.20013       	74.17639       	74.02049       	74.138374      	74.28389       	74.10339       	74.067215      	74.18162       	74.11262       	74.25851       	74.04162       	74.03138       	74.01526       	74.187         	74.245575      	74.18209       	74.10123       	74.15768       	69.94703       	73.26166       	74.098785      	74.13651       	74.26463       	74.21691       	74.24548       	74.127266      	74.10169       	74.245636      	74.11415       	
74.20296       	74.23256       	74.158806      	73.82462       	74.08712       	74.304085      	74.04531       	74.094         	74.09098       	74.16404       	74.257126      	74.00285       	74.126         	74.19841       	74.14618       	74.24596       	73.996376      	74.17238       	74.156395      	74.19062       	74.16933       	73.99663       	74.16131       	73.98834       	74.101456      	74.22402       	74.18655       	72.40883       	69.94128       	73.80512       	74.36897       	74.21882       	74.13916       	74.160225      	74.2186        	74.15342       	74.21858       	74.156456      	74.05069       	74.3175        	74.140526      	74.15542       	74.127045      	74.18231       	74.1198        	74.300446      	74.085106      	74.10994       	74.112076      	74.24341       	74.236046      	74.10912       	74.14418       	74.20907       	74.21511       	74.031555      	74.22736       	74.1802        	75.04054       	79.53321       	74.84352       	73.82603       	74.011665      	74.08634       	74.07202       	74.106804      	73.975044      	74.27348       	74.02271       	74.09226       	74.10964       	74.11085       	74.104225      	74.28099       	74.20211       	74.01923       	74.035675      	74.1797        	74.20644       	74.13235       	74.091385      	74.204506      	74.14999       	74.257324      	74.035324      	74.09806       	74.1984        	74.11931       	73.89585       	67.514114      	73.14631       	73.995094      	74.30495       	74.11176       	74.161         	74.28786       	74.155685      	74.14563       	74.168724      	74.180565      	
74.13035       	74.27311       	74.05099       	74.03071       	74.10874       	74.20606       	74.23218       	74.11304       	74.0079        	74.18404       	74.07918       	74.189476      	74.00543       	74.17868       	74.18898       	74.08774       	73.97267       	74.161194      	74.23723       	74.17723       	74.20468       	73.83808       	74.26547       	74.236916      	74.06047       	74.00925       	74.07394       	71.88809       	72.19173       	73.49437       	74.37052       	74.3172        	74.13565       	74.12177       	74.20238       	74.15029       	74.2028        	74.182335      	74.149284      	74.18637       	74.11549       	74.062645      	74.04941       	74.37791       	74.25684       	73.97018       	74.04036       	74.21865       	74.264206      	74.28495       	74.02174       	74.18582       	74.12989       	74.1763        	74.24448       	74.12122       	74.132355      	74.08182       	75.22166       	80.556595      	74.95171       	73.68571       	73.88631       	74.076744      	74.152985      	74.12196       	74.15251       	74.118546      	74.04507       	74.23331       	74.16762       	73.947         	74.3294        	74.10917       	74.11106       	74.20012       	74.06523       	74.23095       	74.12344       	74.0521        	74.251625      	74.26307       	74.04913       	74.11281       	74.21237       	74.2174        	74.190575      	74.14504       	74.08652       	67.08471       	73.91643       	73.79608       	74.24103       	74.31715       	74.01927       	74.08833       	74.20001       	74.10409       	74.27948       	74.22707       	
74.23845       	74.14213       	74.092         	74.09143       	74.037025      	74.116455      	74.26063       	74.13182       	74.076675      	74.07802       	74.108086      	74.202774      	74.12942       	74.177734      	73.95232       	74.18502       	74.23058       	74.05075       	74.25731       	74.03652       	74.22343       	74.008255      	74.100044      	74.11934       	74.23026       	74.18953       	74.072754      	72.92645       	64.25978       	73.908844      	74.3924        	74.18022       	74.254234      	74.21506       	74.21832       	74.17876       	74.23637       	74.08884       	74.10315       	74.22169       	74.14912       	74.19273       	74.21995       	74.13671       	74.0975        	74.17976       	74.22534       	74.24743       	74.265854      	74.10079       	74.09008       	74.2409        	74.077866      	74.21685       	74.17676       	74.02435       	74.08807       	74.21954       	75.17191       	80.695335      	74.41128       	73.89247       	74.036194      	74.12136       	74.07538       	74.25734       	74.0294        	74.182915      	74.0622        	74.14469       	74.126114      	74.24602       	74.05841       	74.13348       	74.1163        	74.05719       	74.29882       	74.12227       	74.08993       	74.19245       	74.121956      	74.06576       	74.20111       	74.25681       	74.11299       	74.16428       	74.11052       	74.14353       	74.04151       	68.23762       	72.91932       	73.843346      	74.272         	74.275665      	74.166435      	74.20446       	74.02575       	74.21152       	74.21198       	74.07496       	
74.214226      	74.21555       	74.19088       	73.99895       	74.076164      	74.10161       	73.97895       	74.246376      	74.04835       	74.166626      	74.146065      	74.088135      	74.27688       	74.03581       	74.04052       	74.16203       	74.002975      	74.26903       	74.10279       	74.149734      	74.18857       	74.1677        	74.034615      	74.01967       	74.3322        	74.29503       	73.964745      	72.46164       	69.01857       	73.951614      	74.29094       	74.15465       	74.27399       	74.14663       	74.229355      	74.0043        	74.289955      	74.16164       	74.20727       	74.0527        	74.2017        	74.2259        	74.15132       	74.01982       	74.30848       	74.17805       	74.13286       	74.17254       	74.16581       	74.28009       	74.044075      	74.18424       	74.22953       	74.182236      	74.14691       	73.9162        	74.29544       	74.17164       	75.539375      	80.25192       	74.41286       	73.89736       	74.05405       	74.07415       	73.9525        	74.26065       	74.13929       	74.16662       	74.11774       	74.02531       	74.13109       	74.177284      	74.17005       	74.271935      	74.0365        	74.09904       	74.2099        	74.07575       	74.194305      	74.06289       	74.25155       	74.14129       	73.98101       	74.14885       	74.189896      	74.16408       	73.91332       	74.073204      	74.18371       	68.613785      	73.51621       	74.08549       	74.31422       	74.32475       	74.15933       	74.110085      	74.150116      	74.34441       	74.15047       	74.070015      	
74.192245      	74.25515       	74.06976       	73.994606      	74.065834      	74.013374      	74.109474      	74.14388       	74.09207       	74.22069       	74.01105       	74.07425       	74.22843       	74.12465       	74.113495      	74.067245      	74.02251       	74.30347       	74.21931       	74.20255       	74.048706      	74.06171       	74.2064        	73.90514       	74.33138       	74.13685       	74.15191       	73.60178       	68.22215       	73.360016      	74.20939       	74.14908       	74.27186       	74.26481       	74.16706       	73.97624       	74.26307       	74.25614       	74.073235      	74.33557       	74.10651       	74.12619       	74.23046       	74.22004       	74.15143       	74.06882       	74.14831       	74.25172       	74.13133       	74.23945       	74.02408       	74.11795       	74.38161       	74.049355      	74.15934       	74.09031       	74.14997       	74.199776      	74.784355      	80.12463       	75.296936      	73.603096      	73.83909       	73.97042       	74.185295      	74.195175      	74.0076        	74.16292       	73.99741       	74.192604      	74.33553       	74.05864       	74.13881       	74.12576       	74.1239        	74.189896      	74.15286       	74.16341       	73.99562       	74.19072       	74.0831        	74.175545      	74.25584       	74.188255      	73.96799       	74.10283       	74.17086       	74.29502       	74.0406        	72.02871       	64.661255      	74.13013       	74.44621       	74.16312       	73.98889       	74.37948       	74.2792        	74.095955      	74.039925      	74.12975       	
74.0709        	74.15769       	74.178696      	73.90567       	74.0042        	74.15077       	74.140854      	74.16095       	74.11878       	74.06211       	74.08838       	74.17555       	74.15977       	74.182175      	74.213264      	74.18587       	74.029945      	74.07414       	74.16628       	74.11711       	74.163124      	74.04485       	74.21267       	74.08879       	74.20539       	74.15729       	74.04135       	73.52005       	69.75697       	72.65703       	74.31145       	74.2077        	74.28034       	74.303375      	74.16969       	74.08017       	74.145         	74.25778       	74.202126      	74.14695       	74.15935       	74.13283       	74.11673       	74.169395      	74.31371       	74.056145      	74.17339       	74.01586       	74.2661        	74.26238       	74.09429       	74.155754      	74.0514        	74.20729       	74.20899       	74.19621       	74.129776      	74.116135      	75.229744      	79.87286       	75.810974      	73.868195      	73.96248       	74.07047       	74.10761       	74.183426      	74.08633       	74.11652       	74.26059       	74.0918        	74.24089       	73.965675      	74.26504       	74.14301       	74.171844      	74.1583        	74.01673       	74.17972       	74.22616       	74.27446       	74.06737       	74.07377       	73.96157       	74.12062       	74.18364       	74.21383       	74.09097       	74.186935      	74.14895       	67.183846      	73.76895       	73.94502       	74.27426       	74.1694        	74.106224      	74.26243       	74.2179        	74.07524       	74.25513       	74.21032       	
74.18935       	74.21768       	74.034836      	74.05341       	74.16381       	74.14697       	74.07207       	74.109604      	74.11397       	74.15652       	74.17647       	74.07449       	74.10083       	74.216805      	74.12262       	74.20229       	74.11384       	74.17536       	74.06061       	74.232506      	74.12263       	74.01208       	74.09298       	74.09927       	74.15079       	74.116646      	74.18322       	73.56213       	70.763504      	72.921585      	74.22555       	74.348976      	74.224754      	74.089386      	74.312416      	74.10427       	74.2421        	74.09015       	74.22581       	74.15845       	74.21764       	74.10669       	74.05935       	74.13968       	74.24908       	74.20758       	74.306305      	74.0051        	73.97179       	74.154274      	74.368546      	74.118515      	74.081696      	74.16777       	74.244354      	74.208496      	74.17939       	73.99006       	75.074554      	79.98195       	76.25638       	73.69147       	74.0435        	74.09363       	74.03204       	74.132774      	74.15355       	74.09579       	74.21386       	73.96202       	74.22323       	74.18688       	74.19875       	74.15857       	74.006454      	74.214455      	74.2189        	73.9682        	74.128105      	74.22953       	74.300446      	73.88358       	74.27821       	74.110565      	74.21729       	74.14122       	74.14379       	74.09203       	74.29151       	68.238815      	73.62207       	73.9529        	74.184         	74.1295        	74.252525      	74.27403       	74.191025      	74.15964       	74.00458       	74.23978       	
74.31846       	74.13361       	74.05238       	73.988754      	73.96173       	74.16458       	74.16336       	74.06472       	74.12213       	74.16184       	74.074776      	74.02551       	74.21653       	74.175186      	74.15356       	74.13732       	74.0161        	74.16388       	74.19798       	74.02967       	74.338455      	74.010735      	74.15572       	74.02836       	74.2303        	74.1252        	74.32143       	73.63957       	68.268906      	73.23964       	74.25184       	74.28163       	74.28826       	73.96025       	74.18476       	74.369835      	74.00555       	74.30495       	74.021515      	74.11931       	74.27393       	74.07804       	74.22755       	73.99641       	74.13575       	74.20248       	74.1641        	74.14226       	74.19489       	74.03557       	74.28873       	74.097466      	74.19392       	74.190445      	74.19986       	73.98264       	74.20542       	74.1232        	75.06178       	79.95454       	75.35385       	73.95738       	74.19503       	74.13849       	74.00434       	74.13173       	74.12858       	74.24111       	74.01346       	74.2135        	74.18738       	74.01866       	74.31293       	74.1358        	74.15781       	74.0795        	74.05433       	74.222115      	74.22977       	74.05788       	74.24463       	74.02448       	74.19011       	74.35721       	74.04061       	74.12183       	74.1045        	74.070496      	74.31003       	70.30189       	71.92951       	73.60522       	74.364586      	74.12125       	74.204414      	74.08499       	74.25077       	74.25042       	74.126785      	74.12004       	
74.15075       	74.3171        	74.1101        	73.93874       	74.02021       	74.10257       	74.09868       	74.133995      	74.14038       	74.26135       	74.04881       	74.1583        	74.16023       	74.03662       	74.125916      	74.2406        	74.08662       	74.104836      	74.08983       	74.15434       	74.18723       	74.18151       	74.07416       	74.04999       	74.170906      	74.27158       	74.072495      	73.986534      	67.26022       	73.27531       	74.07224       	74.3386        	74.09929       	74.271034      	74.14602       	74.24233       	74.23502       	74.120255      	74.16347       	74.15398       	74.08757       	74.22074       	74.050995      	74.196304      	74.124985      	74.17661       	74.26429       	74.0489        	74.05292       	74.17708       	74.207085      	74.11863       	74.22664       	74.222916      	74.12744       	73.273125      	73.76309       	74.29523       	74.336525      	79.067314      	77.28764       	73.6979        	73.984886      	74.12407       	74.07889       	74.158585      	74.1375        	74.08643       	74.2158        	74.037704      	74.08565       	74.22267       	74.124756      	74.105064      	74.05461       	74.19549       	74.25105       	74.000336      	74.1695        	74.20047       	74.05728       	74.123         	73.98829       	74.21045       	74.31288       	74.09247       	74.20888       	74.10814       	74.20977       	74.034966      	62.835106      	72.798416      	74.327934      	74.3129        	74.11465       	74.1298        	74.341675      	74.211075      	74.08957       	74.04226       	
74.23685       	74.18309       	73.98253       	73.9983        	74.1664        	74.18562       	74.03701       	74.07353       	74.18357       	74.155334      	74.12153       	74.22783       	74.16955       	74.17016       	74.01125       	74.009384      	74.29874       	74.14803       	74.0314        	74.129715      	74.15549       	74.00858       	74.17536       	74.17587       	74.069916      	74.08519       	74.14209       	73.863014      	63.394585      	73.6558        	74.137344      	74.23378       	74.30166       	74.34354       	74.08896       	74.13009       	74.190895      	74.05221       	74.33385       	74.15607       	74.10867       	74.099106      	74.17574       	74.230644      	74.2369        	74.18222       	74.03965       	74.23384       	74.11559       	74.13717       	74.213036      	74.20933       	74.234566      	73.991646      	74.19112       	74.33298       	74.107155      	74.14912       	74.444984      	78.207985      	78.15368       	73.63468       	74.02111       	74.20368       	74.14326       	73.984314      	74.16259       	74.168045      	74.207146      	74.14462       	74.09751       	74.128914      	74.03083       	74.260475      	74.16177       	74.1647        	74.10903       	74.193375      	74.26695       	73.99085       	74.141266      	74.04956       	74.194305      	74.09256       	74.24772       	74.20484       	74.15165       	74.18511       	74.1131        	73.26456       	68.99543       	74.11385       	74.14352       	74.34811       	74.05341       	74.20294       	74.1574        	74.25383       	74.1487        	74.133194      	
74.241714      	74.18071       	74.01254       	74.1048        	74.06429       	73.87045       	74.27771       	74.17875       	74.12417       	74.07559       	74.14391       	74.04085       	74.31413       	74.096596      	74.12124       	74.15657       	74.19835       	74.07842       	74.23442       	74.059555      	74.06618       	74.17712       	73.951485      	74.20386       	74.12923       	74.02316       	74.31214       	73.73649       	68.565         	73.817894      	74.18107       	74.14058       	74.30046       	74.11844       	74.21506       	73.96231       	74.390526      	74.22988       	74.09294       	74.155075      	74.15997       	74.20203       	74.16713       	74.123146      	74.18565       	74.14283       	74.168106      	74.15103       	74.0308        	74.22117       	74.19437       	74.14826       	74.150406      	74.221535      	74.098564      	74.23546       	74.122475      	74.233376      	74.611336      	78.65219       	77.73243       	73.73194       	73.96113       	74.10874       	74.27709       	74.00523       	74.12256       	74.19036       	74.10727       	74.17098       	74.12427       	74.000984      	74.216545      	74.21651       	74.066795      	74.11965       	74.12207       	74.12035       	74.244965      	74.100716      	74.12287       	74.15308       	74.178024      	74.05469       	74.38286       	73.899         	74.23521       	74.03052       	74.14071       	73.17905       	71.418495      	73.82419       	74.20675       	74.24384       	74.225624      	74.1272        	74.29465       	74.24378       	74.12379       	74.07978       	
74.18214       	74.20662       	74.04983       	74.02989       	74.00087       	74.12006       	74.13907       	74.03541       	74.162636      	74.160934      	74.21203       	74.16305       	74.03137       	74.08066       	74.21116       	74.0843        	74.134224      	74.09966       	74.249794      	74.17866       	74.11145       	73.97762       	74.04353       	74.20763       	74.18184       	74.09993       	74.20219       	73.82376       	62.670013      	72.6           	74.184364      	74.26975       	74.30892       	74.03325       	74.23058       	74.18394       	74.13063       	74.30143       	74.12901       	74.23267       	74.16942       	74.20771       	74.237465      	74.01836       	74.18919       	74.11227       	74.234695      	74.17519       	74.13172       	74.38403       	74.05355       	74.07229       	74.2015        	73.9847        	74.48053       	74.01978       	74.110695      	74.13665       	74.46415       	78.42366       	77.985535      	73.46131       	73.774506      	74.13459       	74.04905       	74.15726       	74.058754      	74.17623       	74.17979       	74.115326      	74.19024       	74.1888        	73.97745       	74.18142       	74.08961       	74.1076        	74.251595      	74.20314       	74.14893       	74.16453       	74.0376        	74.28915       	74.17196       	74.11972       	74.0497        	74.05625       	74.48406       	74.1256        	74.03414       	71.81833       	72.664635      	73.55638       	74.35507       	74.30811       	74.026794      	74.17168       	74.34929       	74.12828       	74.2355        	74.16811       	
74.18249       	74.236916      	74.19448       	74.08506       	74.03681       	74.13933       	74.120605      	74.17404       	74.07269       	74.206024      	73.985916      	74.320206      	74.02237       	74.18287       	74.10593       	74.07024       	74.14958       	74.1574        	74.17172       	73.99999       	74.31931       	74.20354       	73.89441       	74.266624      	73.961815      	74.168076      	74.19528       	73.400215      	68.623634      	73.82179       	74.15565       	74.248924      	74.138985      	74.12532       	74.24595       	74.19266       	74.11914       	74.15594       	74.23678       	74.166084      	74.09653       	74.23062       	74.11921       	74.35638       	74.01927       	74.10812       	74.20437       	74.21638       	74.078606      	74.08866       	74.101166      	74.34572       	74.217094      	73.94086       	74.27903       	74.19864       	73.99172       	74.44628       	74.35289       	78.74844       	77.381035      	73.60598       	74.1537        	73.96113       	74.066795      	74.12762       	74.24313       	74.15037       	74.01274       	74.26696       	74.03144       	74.20653       	74.2276        	74.09714       	74.07755       	74.14401       	74.078606      	74.229294      	74.27841       	74.087364      	74.271904      	73.99152       	74.1028        	74.2412        	74.23591       	74.17287       	74.08245       	74.109406      	74.18988       	73.456345      	72.25134       	73.45592       	74.34688       	74.10849       	74.210594      	74.2036        	74.14569       	74.159325      	74.28366       	74.044655      	
74.14479       	74.22214       	74.30481       	74.08818       	74.19115       	74.102875      	74.00091       	74.15067       	74.062126      	74.16647       	74.13976       	74.009026      	74.23339       	74.083084      	74.42447       	74.04908       	74.04815       	74.077286      	74.176476      	74.3562        	73.84187       	74.057846      	74.12453       	74.14355       	73.87921       	74.32934       	74.27149       	73.75608       	68.81564       	73.179344      	74.19809       	74.316795      	74.24493       	74.07355       	74.28812       	74.12714       	74.17629       	74.059235      	74.246414      	74.293144      	74.05124       	74.20747       	74.16653       	74.18041       	74.263466      	74.11396       	74.04349       	74.32095       	73.95562       	74.31499       	74.16839       	74.08038       	74.169304      	74.31539       	74.04278       	74.1538        	74.27681       	74.160286      	74.36308       	77.549095      	78.92307       	72.88612       	73.85279       	74.09007       	74.19218       	74.02952       	74.04524       	74.149124      	74.08622       	74.114105      	74.19526       	74.11751       	74.14505       	74.15353       	74.035194      	74.16994       	74.216225      	74.155685      	74.18231       	74.10125       	74.20889       	74.19095       	74.12771       	74.086105      	74.172745      	74.21022       	74.129906      	74.10964       	74.2605        	71.17751       	71.46747       	73.37767       	74.18585       	74.233505      	74.29559       	74.15542       	74.06164       	74.24325       	74.1425        	74.30844       	
74.22626       	74.290504      	74.00001       	74.1319        	74.20779       	74.202225      	74.06909       	74.07991       	74.21812       	73.895805      	74.034676      	74.18408       	74.31422       	73.98805       	74.07751       	74.0673        	74.14517       	74.080536      	74.18986       	74.1231        	74.18328       	74.155975      	74.01675       	74.20675       	73.9839        	74.195206      	74.227844      	73.045296      	66.37064       	72.770454      	74.042274      	74.19073       	74.26457       	74.21903       	74.21166       	74.20347       	74.02592       	74.23871       	74.39141       	73.93189       	74.23291       	74.20169       	74.17068       	74.17994       	74.25121       	73.965576      	74.306015      	74.036354      	74.18216       	74.243355      	74.13016       	74.06173       	74.32698       	74.09014       	74.23776       	74.26623       	73.998726      	74.033485      	74.971504      	79.93921       	76.276855      	73.6903        	74.00978       	74.17147       	73.99834       	74.02391       	74.2327        	74.11852       	74.19632       	74.23144       	74.18857       	74.13044       	74.154724      	74.09937       	74.12744       	74.14991       	74.137955      	74.14539       	74.188896      	74.16091       	74.135475      	74.13971       	74.12672       	74.230354      	74.13863       	74.11835       	74.05539       	74.18889       	74.24863       	73.35782       	69.82957       	73.39985       	74.18393       	74.22683       	74.24784       	74.11893       	74.278946      	74.06397       	74.10379       	74.29408       	
74.03066       	74.33411       	74.18444       	74.01319       	74.05364       	74.14303       	74.054985      	74.15409       	74.13635       	74.14401       	74.16796       	74.082016      	74.13022       	74.03657       	74.12702       	74.18558       	74.28324       	73.91245       	74.21064       	74.19799       	74.02882       	74.2242        	74.15688       	74.06921       	74.02307       	74.2238        	74.01837       	73.84864       	63.9955        	72.49416       	74.042274      	74.232834      	74.218636      	74.15553       	74.28795       	74.2895        	74.24975       	74.16725       	74.12216       	74.27358       	74.31265       	73.92278       	74.12922       	74.139046      	74.22921       	74.069115      	74.01866       	74.322845      	74.275505      	73.88201       	74.45603       	74.08326       	74.06766       	74.13825       	74.22552       	74.1176        	74.15433       	74.09644       	74.218834      	77.53265       	78.86708       	73.076256      	73.98351       	74.15367       	73.95029       	74.3135        	74.095535      	74.04266       	74.03052       	74.14615       	74.08558       	74.16899       	74.16994       	74.14693       	74.010445      	74.247635      	74.18645       	74.26666       	73.96619       	74.09849       	74.35432       	73.9807        	74.17664       	74.274666      	74.08529       	74.050316      	73.977684      	74.3382        	74.13079       	73.19795       	71.76576       	73.65208       	74.26209       	74.08691       	74.19302       	74.11743       	74.29948       	74.16345       	74.310616      	74.04819       	
74.03563       	74.26164       	74.343414      	73.99895       	74.08855       	74.11479       	74.02842       	74.12028       	74.14975       	74.23294       	74.149254      	74.04574       	74.0995        	74.00968       	74.00415       	74.22783       	74.16302       	74.197845      	73.902954      	74.05177       	74.210976      	74.25358       	74.075516      	74.00712       	74.141846      	73.98058       	74.299774      	73.889946      	68.357         	73.52893       	74.33443       	74.11126       	74.08669       	74.23352       	74.108604      	74.03372       	74.06174       	74.26644       	74.210724      	74.201675      	74.20142       	74.04827       	74.028984      	74.27122       	74.238495      	74.19545       	73.85705       	74.224464      	74.41605       	73.99322       	73.948105      	74.387085      	74.20469       	74.12954       	74.11394       	74.00858       	74.457504      	74.220276      	74.43573       	78.99687       	76.36039       	73.53656       	74.11906       	73.99902       	73.95807       	74.12075       	74.22318       	74.166336      	74.17226       	74.14432       	74.15034       	74.141785      	73.98786       	73.96949       	74.28609       	74.253         	74.00725       	74.07086       	73.99486       	74.37994       	74.23764       	73.936775      	74.09013       	74.39223       	74.37884       	73.985085      	74.02625       	74.092636      	74.36847       	73.44213       	66.97156       	74.268036      	74.223274      	74.09093       	74.171455      	74.199005      	74.408195      	74.11686       	73.993744      	74.35074       	
74.27401       	74.24689       	74.1187        	73.956604      	74.07445       	74.08248       	74.04          	74.10466       	74.130936      	74.15398       	74.07995       	74.086174      	74.14396       	74.29651       	74.064926      	74.152214      	74.13665       	74.186325      	74.07028       	74.04975       	74.23936       	74.12277       	74.00774       	74.20185       	74.016365      	74.311516      	74.200096      	73.99478       	62.130714      	73.2864        	74.11064       	74.420845      	74.291214      	74.09375       	74.17409       	74.177895      	74.25926       	74.21442       	74.05475       	74.156906      	74.07803       	74.135445      	74.30285       	74.11532       	74.01404       	74.23892       	74.33235       	74.13131       	74.18659       	74.05976       	74.272194      	74.14219       	74.071625      	74.15386       	74.251785      	74.095566      	74.18157       	74.14336       	74.43889       	79.161514      	77.04752       	73.79611       	73.94441       	74.18215       	74.024155      	73.93626       	74.2254        	74.0791        	74.129585      	74.26428       	74.04999       	74.04332       	74.34253       	73.98005       	74.251854      	74.1134        	74.097725      	74.25392       	74.10018       	74.26311       	74.047325      	74.08663       	74.14881       	74.26193       	74.14408       	74.02386       	74.265076      	74.23753       	74.145195      	73.59119       	70.765526      	72.95966       	74.26899       	74.039055      	74.191315      	74.27269       	74.0925        	74.27812       	74.15884       	74.12531       	
74.227264      	74.2489        	74.17559       	73.941986      	74.01025       	74.04085       	73.96585       	74.12725       	74.199425      	74.11327       	74.08407       	74.11968       	74.09574       	74.134056      	74.0556        	74.228584      	74.23798       	74.02403       	74.231476      	73.93091       	74.138         	74.29144       	74.04986       	74.0827        	74.1315        	74.294         	74.304886      	73.64868       	70.615974      	72.980736      	74.20148       	74.29931       	74.182915      	74.17946       	74.16333       	74.32895       	74.290695      	73.94285       	73.765         	74.15026       	74.16831       	74.249626      	74.16543       	74.02447       	74.177216      	74.21102       	74.06243       	74.293434      	74.20488       	74.27019       	74.02222       	74.04815       	74.21104       	74.29509       	74.17749       	73.96064       	73.75983       	74.31419       	74.1807        	78.07071       	78.09507       	73.43593       	74.07597       	73.85153       	74.13788       	74.24446       	74.17204       	74.147064      	74.03223       	74.10834       	74.26791       	74.19242       	74.03593       	74.05941       	74.22934       	74.1571        	74.113976      	74.14418       	74.29507       	74.07009       	74.06459       	74.18096       	74.04658       	74.355545      	74.09084       	74.13317       	74.21479       	74.06342       	74.20996       	74.1765        	66.58738       	73.98466       	74.18313       	74.055336      	74.343834      	74.28185       	74.179596      	74.147514      	74.17118       	74.31185       	
74.20601       	74.195076      	74.099724      	73.96537       	74.14064       	74.13577       	73.97807       	74.23849       	74.04826       	74.196434      	74.05968       	74.126335      	74.11436       	74.178085      	74.17158       	74.04089       	74.19962       	74.09193       	74.23193       	74.10575       	73.9736        	74.20459       	74.13328       	74.148445      	74.13733       	74.033325      	74.154495      	73.959236      	70.46201       	73.263916      	74.192505      	74.14088       	74.2313        	74.219475      	74.19205       	74.166565      	74.20161       	74.27199       	74.101295      	74.20974       	74.172386      	74.188736      	74.17209       	74.03047       	74.116585      	73.663124      	73.62667       	74.15162       	74.385605      	74.137276      	74.07073       	74.17809       	74.05249       	74.15376       	74.33654       	74.2754        	74.021225      	74.17636       	74.20776       	78.24364       	78.381035      	73.31785       	73.94865       	73.91255       	74.07241       	74.20795       	74.10556       	74.11666       	74.15712       	74.0703        	74.13434       	74.28824       	74.161934      	74.06382       	74.2496        	74.08274       	74.211655      	74.03911       	74.17658       	74.103645      	74.16723       	74.146194      	74.20648       	74.10238       	74.1946        	74.10938       	74.050026      	74.09435       	74.27778       	73.73614       	61.81257       	73.358765      	74.127174      	74.28699       	74.17553       	74.2126        	74.217636      	74.202415      	74.197495      	74.09431       	
74.2388        	74.19761       	74.16803       	74.084595      	74.07041       	74.03733       	74.00406       	74.18935       	74.18556       	74.08287       	74.17072       	74.04511       	74.107506      	74.33271       	74.053116      	74.226036      	74.026955      	74.10607       	74.08246       	74.29019       	74.055626      	74.08389       	73.99257       	74.07958       	74.11798       	74.226425      	74.21423       	74.038376      	62.209892      	73.1296        	74.09614       	74.14179       	74.29676       	74.15831       	74.14548       	74.21466       	74.1493        	74.181015      	74.1455        	74.16035       	74.15632       	74.28126       	74.03034       	74.084755      	74.2536        	74.11819       	74.221344      	74.078476      	74.192406      	74.133125      	74.183426      	74.30621       	74.022644      	74.14457       	74.21189       	74.0921        	74.313576      	74.2238        	74.03681       	77.7974        	79.288536      	73.09808       	73.88414       	74.06516       	74.03763       	74.10877       	74.04263       	74.20603       	74.13728       	74.19293       	74.13651       	74.108116      	74.17165       	74.23862       	74.12653       	74.159706      	73.997986      	74.322426      	74.06857       	74.1501        	74.276726      	73.92982       	74.07487       	74.214874      	74.10261       	74.19337       	74.127045      	73.9627        	74.217316      	74.15854       	67.10878       	73.598854      	74.260796      	74.42971       	74.135414      	74.26754       	74.14755       	74.224686      	74.0641        	74.21104       	
74.15549       	74.10365       	74.12754       	74.12014       	74.1559        	74.036804      	74.10556       	74.22223       	74.01278       	74.05245       	74.1968        	74.1789        	74.091835      	74.062904      	74.248436      	74.04644       	74.17011       	74.159355      	74.1808        	74.11743       	74.1621        	74.13973       	73.97509       	73.93043       	74.19887       	74.091415      	74.34012       	74.03031       	69.51354       	73.22921       	74.12565       	74.28287       	73.924965      	74.44223       	74.097626      	74.16952       	74.11679       	74.14456       	74.2362        	74.09885       	74.21363       	74.26154       	74.188095      	74.16815       	74.12618       	74.23155       	74.15533       	74.20342       	74.18407       	74.21394       	74.06947       	74.066666      	74.154816      	74.108505      	74.165565      	74.187416      	74.09674       	74.141266      	74.08409       	76.513084      	79.11842       	73.44975       	73.90045       	74.138336      	73.90677       	74.125854      	74.16068       	74.24056       	74.015656      	74.056076      	74.239716      	74.20036       	74.17459       	73.99881       	74.26883       	74.11166       	74.03016       	74.12052       	74.16706       	74.32908       	74.06833       	74.091354      	74.136086      	74.34511       	74.13          	74.08075       	74.01001       	74.02016       	74.21759       	73.89049       	67.64864       	73.1987        	74.16079       	74.228874      	74.16876       	74.2661        	74.04925       	74.136734      	74.39839       	74.1275        	
74.29332       	74.263145      	73.94139       	73.91161       	73.994995      	74.0701        	74.17379       	74.137566      	74.04072       	74.141426      	74.187546      	74.03643       	74.16028       	74.26096       	74.0203        	74.207825      	74.15539       	74.12522       	74.19949       	74.02358       	74.186554      	74.12841       	74.06692       	74.157455      	74.10609       	74.14026       	73.97619       	74.45338       	61.764523      	73.74243       	74.10442       	74.19339       	74.19512       	74.15938       	74.28517       	74.175224      	74.14485       	74.11997       	74.261925      	74.21242       	74.19289       	74.07155       	73.991714      	74.28916       	74.039894      	74.394226      	74.28047       	74.08774       	74.02128       	74.24594       	74.07307       	74.27731       	74.14754       	74.227325      	73.985954      	74.22213       	74.31408       	74.19185       	74.05632       	77.65752       	79.36676       	73.67318       	73.96909       	74.03013       	73.88855       	74.186         	74.2378        	74.251045      	73.91465       	74.195335      	74.15667       	74.33746       	74.18568       	74.078735      	74.13155       	74.23154       	74.007866      	74.04909       	74.2825        	74.05775       	74.13906       	74.20789       	74.11496       	74.19114       	74.179344      	74.0995        	74.16738       	74.25161       	73.91749       	73.80539       	64.94631       	73.58883       	74.12277       	74.21201       	74.29396       	74.251434      	73.75554       	73.100174      	74.04756       	74.860855      	
74.34775       	74.1876        	74.13893       	74.06235       	74.08184       	74.07285       	74.068596      	74.06811       	74.11616       	74.00559       	74.13907       	74.26388       	74.12908       	74.126915      	74.20521       	74.05656       	74.070526      	74.288124      	74.15402       	74.03264       	74.14337       	74.0633        	74.05203       	74.23218       	74.26739       	73.88231       	74.27728       	74.17461       	67.39618       	74.06106       	73.98727       	74.28343       	74.306366      	74.26563       	74.25421       	74.16907       	74.2015        	74.18417       	74.154976      	74.12134       	74.08256       	74.22639       	73.90827       	74.329895      	74.280014      	74.145805      	74.166306      	74.17696       	74.18798       	74.10535       	74.21665       	74.11572       	74.27335       	74.156296      	74.14083       	74.11945       	74.16556       	74.16981       	74.15857       	76.42424       	79.547905      	73.60359       	73.849724      	74.036575      	73.88855       	74.276535      	74.17785       	74.08306       	74.16798       	74.1197        	74.25091       	74.00531       	74.23186       	74.15272       	74.19019       	74.18738       	74.062546      	74.311264      	74.056175      	74.186424      	74.12569       	74.32152       	74.06578       	74.016235      	74.26621       	74.139946      	74.121216      	74.145035      	74.04446       	74.15053       	64.771324      	73.78699       	74.367035      	74.35369       	73.607346      	71.830574      	70.80237       	71.13415       	74.97197       	76.32564       	
74.1004        	74.180824      	74.110634      	73.87871       	73.913345      	74.13941       	74.204704      	74.01283       	74.21494       	74.179665      	74.14738       	74.04727       	74.24685       	74.06044       	74.048485      	74.121475      	74.152466      	74.215225      	73.9937        	74.14024       	74.156525      	74.14288       	74.24276       	74.147934      	74.11838       	73.939964      	74.212685      	74.00584       	67.511406      	73.52663       	74.175125      	74.49256       	74.142784      	74.04188       	74.231445      	73.64414       	74.180695      	73.81632       	73.77864       	74.20235       	74.52822       	73.554146      	74.10624       	74.11387       	74.5402        	74.01217       	73.331215      	74.73153       	73.77221       	74.485565      	73.70052       	74.84599       	74.34466       	74.70859       	73.80322       	73.70479       	74.07106       	74.534615      	72.87749       	76.61427       	77.47938       	73.75765       	73.959526      	74.024055      	73.6557        	74.43876       	74.0333        	74.0361        	74.201454      	74.08709       	73.97573       	74.163765      	73.9776        	74.12126       	74.30647       	74.01539       	74.08509       	74.12622       	73.95136       	74.07025       	74.23779       	74.39586       	74.07944       	73.999344      	74.1643        	74.34009       	74.189476      	74.06318       	74.30201       	74.14997       	73.9104        	74.04025       	74.07239       	74.24393       	72.32499       	68.1168        	69.51762       	71.73171       	74.35724       	76.26437       	
74.14989       	74.127655      	74.25742       	73.99568       	73.99037       	74.014435      	74.19173       	73.95706       	74.06743       	74.21769       	74.14336       	73.96861       	74.16518       	74.19836       	74.09013       	74.18527       	74.14851       	74.178314      	74.09098       	73.96513       	74.29089       	74.08742       	73.96001       	74.09927       	74.12089       	74.259094      	74.11041       	74.1867        	74.22865       	70.14678       	70.13934       	72.89994       	74.644966      	74.52165       	74.15236       	72.97632       	72.44897       	74.61655       	68.24648       	72.60711       	74.565414      	74.32862       	73.987335      	73.89676       	74.39922       	74.19897       	73.809204      	74.662704      	73.831795      	73.57835       	74.55525       	74.443726      	74.24731       	74.16195       	74.14611       	74.15307       	74.154884      	74.055916      	74.13854       	74.35776       	74.157036      	74.06074       	74.36497       	74.191055      	72.90915       	74.297295      	74.12961       	74.24238       	74.209496      	74.23151       	74.01674       	74.18895       	74.113914      	74.22803       	74.14466       	74.068375      	74.17411       	74.19079       	74.10796       	74.15123       	74.21237       	74.24227       	74.23636       	74.024124      	74.270035      	74.10213       	74.08107       	74.301865      	74.118484      	74.18537       	73.92327       	74.04967       	74.36763       	73.95459       	74.21682       	74.17398       	70.00347       	71.381645      	74.10352       	77.37815       	
74.22084       	74.05612       	74.10496       	73.90765       	74.12348       	74.07223       	74.112656      	74.226135      	74.23621       	74.1694        	73.77113       	74.20023       	74.13555       	74.055336      	74.31636       	73.90461       	74.18472       	74.250565      	74.14976       	74.11039       	74.28023       	74.03032       	73.981636      	74.18894       	74.08141       	74.20643       	74.28554       	73.97675       	74.24536       	74.03228       	74.318184      	74.116264      	74.09085       	74.21285       	74.16255       	74.168915      	74.04037       	74.12253       	74.28676       	74.24971       	74.074196      	74.02962       	74.02772       	74.18993       	74.11268       	74.24342       	74.05023       	74.2454        	74.10653       	74.15434       	74.098434      	74.18999       	73.99951       	74.22759       	74.428116      	74.105995      	74.224846      	73.93825       	74.21571       	74.33886       	74.17134       	74.17508       	74.29874       	74.10768       	74.008705      	74.25065       	74.24062       	74.351456      	74.11507       	74.07299       	74.00333       	74.16084       	74.211365      	74.203384      	74.067764      	74.18068       	74.2045        	74.222244      	74.06082       	74.05216       	74.149         	74.26558       	74.04035       	74.1949        	74.147446      	74.246544      	74.1881        	74.08416       	74.21925       	74.316444      	73.91597       	73.982864      	74.18686       	74.161835      	74.23784       	74.356735      	74.13326       	74.1103        	74.040634      	74.13969       	
74.0746        	74.13331       	74.22217       	74.10973       	73.94473       	74.08229       	74.115326      	74.21306       	74.06781       	74.033356      	74.1716        	74.14121       	74.17474       	74.23484       	74.01048       	74.19445       	74.136475      	74.14572       	74.11161       	74.13868       	74.20693       	74.02781       	74.136475      	74.12896       	74.17112       	74.16907       	74.10313       	74.19622       	73.93967       	74.0525        	74.223595      	74.32529       	74.107315      	74.184875      	74.19868       	74.14401       	74.19324       	73.85332       	74.31165       	74.22712       	74.07715       	74.17903       	73.91744       	74.27029       	74.1904        	74.20793       	74.103134      	74.204414      	73.98428       	73.97632       	74.17431       	74.13127       	74.27332       	74.233665      	74.07371       	74.1728        	74.28512       	74.18789       	74.15419       	74.24263       	74.273445      	74.248146      	74.12827       	74.13229       	74.07761       	74.10331       	74.324455      	74.32461       	74.14125       	74.01269       	74.21751       	74.22743       	74.147804      	74.10944       	74.21135       	74.25209       	74.11734       	74.117386      	74.238         	74.23036       	74.02987       	74.118645      	74.18107       	74.013954      	74.09302       	74.14444       	74.170166      	74.17276       	74.34307       	74.02644       	74.01269       	74.10256       	74.186844      	74.29939       	74.27559       	74.155945      	74.05235       	74.084885      	74.004906      	74.27396       	
74.27086       	74.19513       	74.00594       	74.06015       	73.88497       	74.06257       	73.93393       	74.21184       	74.08837       	74.09745       	74.216774      	74.09702       	74.03972       	74.12272       	74.224884      	74.16595       	74.165344      	74.07235       	74.21809       	74.11176       	74.16989       	74.184105      	74.04487       	74.20205       	74.05928       	74.09469       	74.12655       	74.14966       	74.14344       	74.00568       	74.2663        	74.211494      	74.10632       	74.183174      	74.20418       	74.05458       	74.148125      	73.980545      	74.164         	74.17413       	74.29421       	74.14945       	74.156525      	74.32189       	74.16132       	74.01767       	74.25488       	74.17282       	74.1744        	73.912575      	74.04619       	74.23229       	74.234184      	74.09523       	74.08103       	74.19144       	74.40675       	74.05139       	74.237366      	74.36687       	74.098465      	74.17453       	74.10924       	74.38782       	74.16305       	74.043144      	74.071556      	74.300095      	74.111786      	74.32536       	74.11169       	74.06474       	74.1444        	74.24954       	74.21826       	74.16979       	74.12507       	74.16383       	74.15402       	74.07909       	74.23677       	74.12151       	74.156715      	74.20057       	74.24907       	74.179115      	74.0823        	74.08412       	74.23394       	74.11109       	74.101395      	74.05093       	74.09039       	74.24091       	74.31315       	74.02453       	74.13029       	74.24757       	74.19747       	74.1519        	
74.18537       	74.15475       	74.198006      	74.00109       	74.07558       	74.1931        	74.085014      	74.12818       	74.15968       	74.13083       	74.14344       	74.194374      	74.053024      	74.202545      	74.17423       	73.98404       	74.21899       	74.19154       	74.14674       	74.098145      	74.1406        	74.20997       	74.08091       	73.9738        	74.19114       	74.20282       	74.176506      	74.12895       	74.05204       	74.142525      	74.19285       	74.10096       	74.32139       	74.11897       	74.158         	74.11442       	74.14996       	73.829834      	74.17612       	74.111305      	74.07957       	74.380196      	74.13359       	74.207664      	74.42841       	73.84072       	74.20918       	74.12053       	74.24867       	74.228584      	74.06996       	74.14167       	74.076195      	74.101616      	74.144226      	74.19915       	74.3937        	73.94363       	74.1225        	74.24984       	74.16609       	74.2366        	74.210945      	74.09808       	74.08894       	74.18992       	74.17878       	74.18525       	74.12792       	74.18339       	74.092606      	74.15161       	74.24096       	74.1853        	74.10283       	74.15722       	74.20517       	74.05592       	74.1342        	74.366455      	74.00405       	74.168564      	74.04954       	74.18808       	74.21051       	74.17474       	74.259605      	74.21519       	74.11627       	74.16107       	73.92832       	74.01297       	74.11353       	74.25784       	74.19924       	74.15951       	74.09619       	74.2708        	74.102486      	74.26796       	
74.09865       	74.20771       	74.133804      	74.0742        	74.19465       	74.05546       	74.30355       	74.0508        	74.16812       	74.04609       	74.053825      	74.01188       	74.26828       	74.02211       	74.19102       	74.14068       	74.02657       	74.06152       	74.223335      	73.992424      	74.22079       	74.24527       	74.07631       	74.10162       	74.10479       	74.18568       	74.23336       	74.1116        	74.03946       	73.77224       	74.2135        	74.36609       	74.25836       	74.0874        	74.2357        	74.08665       	74.18514       	74.11437       	74.02185       	74.17323       	74.16411       	74.37783       	74.128624      	74.07803       	74.18008       	74.200836      	74.19452       	74.14819       	74.09179       	74.14507       	74.29664       	73.95347       	74.14667       	74.23508       	74.17516       	73.808685      	74.376785      	74.218056      	74.183655      	74.32647       	74.188484      	74.15606       	74.19087       	74.119125      	74.268585      	74.13467       	74.149445      	74.18223       	74.09014       	74.059425      	74.274826      	74.09251       	74.1594        	74.066475      	74.321396      	74.230995      	74.12234       	74.13658       	74.093605      	74.31495       	74.144196      	74.12822       	74.142265      	74.19665       	74.09522       	74.18174       	74.203445      	74.182945      	74.2318        	74.2121        	73.85888       	74.05701       	74.23783       	74.098274      	74.34948       	74.02991       	74.20933       	74.258575      	74.05388       	74.17229       	
74.24207       	74.25856       	74.05914       	73.947876      	73.99916       	74.295654      	74.098145      	74.08849       	74.07708       	74.20203       	74.14015       	74.156525      	74.14834       	74.0035        	74.11136       	74.18235       	74.28836       	74.02876       	74.106544      	74.13153       	74.16432       	74.04402       	74.226395      	74.07833       	74.178116      	73.977325      	74.41768       	74.11887       	73.98026       	73.95522       	74.071915      	74.24375       	74.18696       	74.26086       	74.04788       	74.289925      	74.125946      	74.061356      	74.390236      	74.05541       	74.18065       	74.11503       	74.03418       	74.26332       	74.175575      	74.06469       	74.17164       	74.14773       	74.12242       	74.16941       	74.06907       	74.32139       	74.0252        	74.138145      	74.10256       	74.20563       	74.16992       	74.124115      	74.15271       	74.21916       	74.30497       	74.296326      	74.158325      	74.19549       	74.1575        	74.26351       	74.13178       	74.1792        	74.1527        	74.26289       	74.021545      	74.18612       	74.31128       	74.08245       	74.10065       	74.11          	74.2582        	74.0528        	74.203705      	74.11635       	74.12729       	74.299355      	73.98853       	74.43047       	74.146034      	74.13217       	74.11729       	74.207535      	74.085495      	74.18477       	74.055565      	74.01469       	74.05009       	74.2208        	74.34609       	74.23059       	74.08402       	74.26059       	74.0473        	74.222435      	
74.27833       	74.32094       	74.158806      	74.07891       	74.06777       	73.97219       	74.20554       	74.023994      	74.087364      	74.11983       	74.206764      	74.141495      	74.111206      	74.18455       	74.16124       	74.09786       	74.12222       	74.15148       	74.06306       	74.220634      	74.14234       	74.10706       	74.17007       	74.2336        	73.98869       	73.95173       	74.332535      	74.368416      	73.893166      	74.096504      	73.99368       	74.17409       	74.244965      	74.32022       	74.24233       	74.01643       	74.15185       	74.27662       	73.99974       	74.05241       	74.264305      	74.148254      	74.08721       	74.24172       	74.08299       	74.13341       	74.06124       	74.22511       	74.13692       	74.05822       	74.12005       	74.17064       	74.19718       	74.08361       	74.128716      	73.96094       	74.15139       	74.372475      	74.19225       	74.28968       	74.2329        	74.19999       	74.15609       	74.267494      	74.240166      	74.05849       	74.11196       	74.04401       	74.39165       	74.18473       	74.084595      	74.27333       	74.161194      	74.014694      	74.223404      	74.2621        	74.036606      	74.242485      	74.08189       	74.076096      	74.25392       	74.0855        	74.099915      	74.392         	74.14236       	74.20735       	74.06945       	74.26017       	74.18257       	74.12556       	73.964226      	73.94979       	74.06077       	74.14855       	74.41731       	74.29893       	74.115875      	74.001015      	74.24269       	74.27939       	
74.182106      	74.21799       	74.06055       	73.95848       	74.0644        	74.06619       	74.02347       	74.01342       	74.214554      	74.1473        	74.08788       	74.259224      	74.05952       	74.01826       	74.28002       	74.011505      	74.13159       	74.1811        	74.13186       	74.086395      	74.11198       	74.3092        	74.06569       	74.18706       	74.13166       	73.956535      	74.23026       	74.1271        	74.29334       	73.976006      	74.031525      	74.19041       	74.199455      	74.20791       	74.13956       	74.078995      	74.09896       	74.167885      	74.1418        	74.26846       	74.16602       	74.04361       	73.99519       	74.35932       	74.214134      	74.141235      	74.12504       	74.10488       	74.02417       	74.275185      	74.26212       	74.018394      	74.25026       	74.0908        	74.11584       	74.12729       	74.10449       	74.27071       	74.05435       	74.08724       	74.383064      	74.43055       	74.11809       	73.92348       	74.3643        	74.18155       	74.14106       	74.3713        	73.985535      	74.188805      	74.03963       	74.26087       	74.231384      	74.24909       	73.90337       	74.37109       	74.14108       	74.06326       	74.26386       	74.13402       	74.246445      	74.10664       	74.18048       	74.11481       	74.26344       	74.2466        	74.1756        	74.17519       	74.14395       	74.057625      	73.99917       	74.10146       	74.23969       	74.00899       	74.174774      	74.306305      	74.22798       	74.04079       	74.24848       	73.98199       	
74.29094       	74.22661       	74.11819       	74.05525       	74.02902       	74.17708       	74.23905       	73.981834      	74.170685      	74.13884       	74.05854       	74.064445      	74.11738       	74.11835       	74.2699        	74.05419       	73.96966       	74.30921       	74.20068       	74.07091       	74.07112       	74.19078       	74.09509       	74.2398        	74.1065        	74.10277       	74.15457       	74.1258        	74.205894      	74.11897       	73.98028       	74.24652       	73.98448       	74.2145        	74.23207       	74.10202       	74.21392       	74.10059       	74.16642       	74.17805       	74.19324       	74.09702       	74.15011       	74.1637        	74.02727       	74.123436      	74.22985       	74.17126       	74.121864      	74.21457       	74.09865       	74.3609        	73.98797       	74.1378        	74.10923       	73.970634      	74.35228       	74.30479       	73.992935      	74.23077       	74.38468       	74.15675       	74.1827        	74.06598       	74.17363       	74.17925       	74.235214      	74.14901       	74.22826       	74.07417       	74.22329       	74.03774       	74.26353       	74.196014      	74.129295      	74.181206      	74.09259       	74.0192        	74.17852       	74.13527       	74.12814       	74.25209       	74.020935      	74.33126       	74.1343        	74.12532       	74.02487       	74.25726       	74.27516       	74.11672       	74.08759       	73.94825       	74.2708        	73.96467       	74.20781       	74.08157       	74.17542       	74.28566       	74.107414      	74.154526      	
74.233734      	74.14051       	74.295784      	73.99838       	73.8988        	74.06903       	74.18749       	74.18909       	74.1617        	74.12334       	74.03391       	73.96904       	74.24755       	74.251564      	74.02746       	73.97823       	74.151405      	74.276375      	74.18308       	74.2508        	73.99524       	74.079666      	74.140884      	74.164764      	74.1609        	74.19136       	74.14984       	74.09225       	74.06325       	74.23339       	74.04966       	74.05819       	74.108444      	74.14328       	74.144196      	74.27153       	74.23698       	74.13553       	74.102516      	74.21566       	74.0922        	74.17378       	74.253334      	74.1496        	74.12251       	74.12297       	74.13369       	74.13035       	74.08283       	74.163246      	74.0746        	74.18091       	74.19061       	74.23122       	74.05893       	73.97941       	74.204346      	74.2311        	74.07965       	74.31313       	74.414665      	74.17642       	74.230484      	74.08928       	74.35417       	74.177574      	74.05222       	74.14355       	73.98384       	74.390335      	74.135         	74.164764      	74.01779       	74.07691       	74.2883        	74.261604      	74.040565      	74.12744       	74.18961       	74.101425      	73.98054       	74.12288       	74.16052       	74.17553       	74.35151       	74.034676      	74.226654      	74.02395       	74.23088       	74.24649       	74.00289       	73.99837       	74.29442       	73.95217       	74.12891       	74.38417       	74.0698        	74.174866      	74.126595      	74.1985        	
74.22216       	74.25646       	74.20389       	74.04559       	73.98356       	73.96235       	74.1642        	74.13536       	74.261696      	74.040825      	74.05637       	73.969475      	74.19346       	74.1847        	74.05456       	74.18719       	74.09942       	74.1589        	74.30508       	73.971924      	74.325806      	74.21286       	73.95793       	74.35533       	74.05447       	74.006355      	74.18831       	74.18367       	74.056526      	74.053154      	74.118904      	74.06274       	74.21061       	74.12274       	74.30311       	74.31915       	73.946434      	74.25887       	74.00415       	74.199844      	74.162636      	74.06881       	74.246254      	74.15513       	74.31685       	74.07588       	73.99575       	74.18709       	74.145966      	74.09042       	74.28581       	73.97322       	74.16233       	74.192825      	74.03785       	73.96993       	74.303345      	74.081535      	74.08277       	74.18485       	74.432526      	74.190926      	74.32435       	74.1493        	74.11415       	74.15668       	74.16742       	74.049576      	74.205345      	74.09572       	74.229485      	74.32873       	74.0073        	74.20198       	74.150696      	74.11162       	74.30477       	74.118         	74.145454      	74.093636      	74.17152       	74.28434       	74.110405      	74.113846      	74.12393       	74.11318       	74.215614      	74.06683       	74.324524      	74.17572       	74.01706       	73.98439       	74.26618       	74.05206       	74.16093       	74.19599       	74.10065       	74.178955      	74.1641        	74.29629       	
74.211975      	74.27371       	74.21762       	73.97913       	74.1752        	74.01189       	74.21422       	74.073586      	74.11564       	74.10765       	74.25306       	73.97073       	74.14331       	74.31294       	74.16666       	74.02583       	74.09607       	74.133316      	74.13325       	74.18615       	74.099236      	74.216194      	74.06016       	74.045845      	74.22406       	74.119286      	74.12896       	74.135574      	74.16411       	73.862404      	74.179245      	74.28671       	74.137665      	74.18317       	74.19735       	74.22774       	74.07291       	74.18391       	74.064606      	74.12307       	74.31516       	74.19003       	73.997635      	74.220695      	74.20824       	74.2072        	74.01116       	74.05792       	74.227806      	74.22061       	74.1789        	74.043846      	74.10038       	74.277855      	73.994225      	73.94674       	74.339874      	74.18918       	74.098625      	74.04274       	74.56951       	74.140495      	74.1622        	74.116425      	74.189896      	73.96571       	74.42889       	74.17681       	74.077934      	74.108864      	74.12579       	74.21543       	74.15766       	74.245476      	74.074455      	74.25572       	73.980415      	74.309         	74.21771       	73.96676       	74.19583       	74.17288       	74.1451        	74.155365      	74.17722       	74.06566       	74.18034       	74.30902       	74.10529       	74.247246      	74.1042        	73.868805      	74.26384       	74.14337       	74.08472       	74.20447       	73.94914       	74.25724       	74.19124       	74.16053       	
74.15943       	74.28965       	74.13952       	74.009254      	74.15412       	74.17718       	74.2427        	73.927155      	74.220604      	74.18857       	74.038734      	74.126816      	74.228745      	74.08738       	74.06458       	74.18939       	74.14056       	74.11065       	74.10013       	74.11153       	74.13709       	74.242256      	74.12591       	74.03895       	74.22391       	74.218475      	74.10087       	74.07881       	74.22127       	73.785416      	74.15539       	74.199295      	74.249466      	74.12847       	74.26952       	73.93591       	74.28255       	74.10406       	74.18466       	74.07512       	74.11757       	74.38607       	74.15271       	74.11903       	74.17583       	74.11848       	74.06372       	74.157585      	74.167564      	74.15924       	74.25918       	74.11368       	74.085335      	74.240746      	74.02862       	74.11848       	74.15584       	74.09609       	74.36169       	74.25243       	74.19831       	74.00651       	74.39801       	74.1956        	74.05809       	74.25789       	74.00267       	74.32755       	74.18297       	74.0225        	74.17244       	74.23908       	74.100494      	74.21458       	74.08743       	74.108574      	74.02516       	74.40572       	74.200485      	74.14279       	74.40198       	73.906395      	74.17117       	74.160934      	74.25036       	74.09914       	74.026634      	74.13459       	74.16085       	74.23455       	74.08584       	73.87157       	74.16005       	74.18078       	74.23776       	74.10371       	74.26069       	74.08783       	74.06702       	74.27411       	
74.27835       	74.22645       	74.25349       	74.064926      	73.92357       	74.30262       	74.032875      	74.13398       	74.09849       	74.11695       	74.14129       	74.06931       	74.189125      	74.17724       	74.26172       	73.93616       	74.149574      	74.24441       	74.00862       	74.08031       	74.10418       	74.40629       	74.078255      	74.13189       	74.11564       	74.157616      	74.14374       	74.04044       	74.16286       	73.85985       	74.23709       	74.351906      	74.092995      	73.951614      	74.39769       	74.18707       	74.06165       	74.19691       	74.08012       	74.17172       	74.09691       	74.19477       	74.0758        	74.29326       	74.014         	74.1156        	74.202896      	73.93385       	74.3214        	74.18454       	74.23784       	73.99023       	74.25938       	74.07895       	74.30051       	74.13354       	74.05316       	74.21516       	74.28025       	74.27303       	74.43401       	74.13343       	74.031044      	74.169655      	74.2213        	74.089676      	74.20252       	74.204346      	74.01499       	74.27303       	74.1314        	74.33655       	74.177124      	73.91242       	74.326454      	74.10575       	74.11807       	74.25563       	74.26157       	74.07237       	74.07952       	74.35547       	74.138725      	74.19464       	74.024956      	74.47818       	74.17575       	74.11191       	73.96874       	73.94573       	74.36594       	73.99356       	74.102         	74.2138        	74.13299       	74.35219       	74.15213       	74.21245       	74.09756       	73.91753       	
74.233246      	74.10138       	74.21149       	74.06039       	74.18023       	74.10272       	74.05031       	74.112366      	74.075134      	74.17448       	74.15934       	74.08526       	74.11001       	74.242424      	73.979485      	74.1115        	74.299576      	74.25987       	73.977325      	74.26071       	74.05936       	74.21514       	74.12963       	74.187035      	74.0612        	74.163826      	74.21289       	73.95023       	74.23849       	73.88502       	74.23116       	74.11679       	74.131836      	74.319756      	74.1897        	74.03184       	74.36357       	74.14755       	74.03512       	74.27653       	74.10195       	74.08733       	74.22454       	74.13731       	73.87692       	74.04233       	74.32751       	74.27999       	74.17998       	74.18357       	74.33923       	73.97953       	74.13965       	74.05108       	74.35937       	74.073616      	74.107506      	74.197464      	74.32503       	74.200714      	74.26894       	74.14653       	74.162254      	74.19915       	74.13989       	74.25636       	74.17116       	74.13224       	74.23295       	74.04812       	74.09893       	74.276955      	74.24614       	73.93743       	74.09537       	74.232666      	74.08854       	74.38439       	74.16643       	73.93966       	74.169106      	74.01211       	74.16472       	74.31228       	73.960884      	74.18965       	74.25239       	74.21175       	74.17928       	73.913025      	74.19578       	74.01383       	74.03693       	74.28815       	74.13807       	74.26464       	74.26824       	74.15207       	74.14004       	74.09957       	
74.2398        	74.168755      	74.148964      	74.02399       	73.96942       	74.070564      	74.08199       	73.94014       	74.054955      	74.28799       	74.17433       	74.09333       	74.17976       	74.08773       	74.0399        	74.24851       	74.30621       	73.961136      	74.01847       	74.310486      	74.20155       	74.125175      	73.9826        	74.29733       	74.147064      	74.106636      	74.04104       	74.16097       	74.13531       	73.80456       	74.41494       	74.195496      	74.103065      	74.2073        	74.07859       	74.04071       	74.338394      	74.39702       	73.87622       	74.138794      	74.12856       	74.38523       	74.22705       	73.966         	73.95181       	74.06395       	74.29691       	74.34825       	74.12648       	74.137146      	74.08333       	74.28912       	74.08939       	74.08437       	74.0754        	74.2529        	73.99953       	74.236916      	74.187454      	74.32735       	74.34328       	74.05964       	74.23881       	74.13976       	74.15399       	74.14121       	74.08669       	74.25486       	74.33153       	74.07056       	74.06191       	74.2064        	74.05869       	74.29554       	74.13248       	74.28288       	74.24177       	74.16654       	74.17696       	73.98713       	74.2256        	74.2153        	74.139984      	74.218864      	74.045784      	74.22526       	74.179344      	74.08967       	74.262276      	74.08009       	74.1908        	74.11373       	74.020805      	74.25124       	74.1371        	74.2322        	74.15923       	74.119865      	74.17897       	73.96044       	
74.317764      	74.410866      	74.12362       	74.06767       	74.08504       	74.09596       	74.10644       	74.09842       	74.11927       	73.985344      	74.170815      	74.181526      	74.1651        	73.84614       	74.22611       	74.0805        	74.085205      	74.24552       	74.24548       	73.937004      	74.02384       	74.23075       	74.212776      	74.13418       	74.0558        	74.12687       	74.213715      	74.05794       	74.07852       	74.051994      	74.33304       	74.305695      	73.96263       	74.105255      	74.100395      	74.22053       	74.05386       	74.17576       	74.204895      	74.25832       	74.314384      	74.20784       	73.888664      	74.16905       	74.33426       	73.9794        	74.318855      	74.11608       	74.18839       	74.0939        	74.088196      	74.20208       	74.07938       	74.31121       	73.96575       	74.237236      	74.06229       	74.244446      	73.99703       	74.47552       	74.236755      	74.46139       	74.11741       	74.180084      	74.203606      	74.13486       	74.09776       	74.15872       	74.04988       	74.45557       	74.085594      	74.14687       	74.23422       	74.10676       	74.11          	74.22594       	74.10857       	74.052284      	74.26354       	74.258354      	74.10218       	74.298355      	74.046585      	74.10899       	74.30228       	74.10011       	74.19685       	73.96366       	74.157845      	74.19658       	74.04342       	74.18275       	74.00917       	74.14651       	74.28572       	74.14577       	74.111145      	74.175316      	74.16602       	74.24687       	
74.20976       	74.12518       	74.10724       	74.0638        	74.0379        	74.09836       	73.97962       	74.26512       	74.14059       	74.07196       	74.15027       	74.12651       	74.07044       	74.22577       	74.16347       	73.95586       	74.19443       	74.20151       	74.10591       	74.28195       	73.97876       	74.13806       	74.23888       	74.14843       	74.13493       	74.07514       	74.101234      	74.21889       	74.15727       	73.947876      	74.172165      	74.06823       	74.40383       	74.053856      	73.984         	74.033745      	74.071754      	74.15952       	74.278885      	74.36806       	74.340225      	74.098564      	74.07359       	74.14611       	74.437546      	74.01591       	74.080894      	74.2402        	74.01977       	74.03139       	74.27812       	74.23624       	74.05708       	74.16043       	74.26069       	74.011406      	74.04295       	74.18133       	74.162796      	74.23606       	74.36202       	74.26902       	74.39011       	74.01974       	74.21759       	74.089584      	74.26433       	74.153145      	74.01524       	74.23145       	74.21101       	74.255806      	74.08879       	74.26469       	74.10545       	74.18258       	74.07555       	74.22134       	74.13104       	74.22151       	74.09216       	74.159355      	74.07045       	74.3127        	74.26588       	74.200226      	74.01495       	74.16129       	74.14127       	74.180435      	74.09989       	74.22645       	74.07242       	74.056854      	74.09508       	74.1231        	74.4121        	74.092285      	74.0936        	74.07622       	
74.28262       	74.15498       	73.98749       	74.052246      	74.17708       	74.06687       	74.13108       	74.04571       	74.19878       	74.07777       	74.093666      	74.158424      	74.195724      	74.13164       	74.19813       	74.0974        	74.09288       	74.21301       	74.031494      	74.11523       	74.1654        	74.194115      	74.18668       	74.18226       	74.107635      	74.13014       	74.22027       	74.19569       	73.90489       	73.94827       	74.38089       	74.03571       	74.26293       	74.1456        	74.037384      	74.10862       	74.22865       	74.23789       	74.072815      	74.206894      	74.22516       	74.19484       	74.28527       	74.00183       	74.12421       	74.22548       	74.15436       	74.24732       	74.16654       	74.289734      	74.03405       	74.08552       	74.04358       	74.243095      	74.02611       	74.0925        	74.12399       	73.97802       	74.307396      	74.187164      	74.275696      	74.436134      	74.14382       	74.29086       	74.07947       	74.07555       	74.30739       	74.03715       	74.238785      	73.934586      	74.32199       	74.23428       	74.18366       	74.094124      	74.37293       	74.0212        	74.18814       	74.15014       	74.240814      	74.18251       	74.09836       	74.0375        	74.399055      	74.08944       	74.247406      	74.04724       	74.162476      	74.16298       	74.12206       	74.27719       	73.87024       	74.0967        	74.27344       	74.24326       	74.246025      	74.1521        	74.08695       	74.166336      	74.09808       	74.26977       	
74.309296      	74.27702       	74.098625      	73.90431       	73.83233       	73.99194       	74.11868       	74.27904       	74.07827       	74.08932       	74.08614       	74.111626      	74.27058       	74.046         	74.03379       	74.353226      	73.97561       	74.23182       	73.9853        	74.04761       	74.20931       	74.1004        	74.24541       	74.1378        	74.077255      	74.28498       	74.00241       	74.120415      	74.10337       	74.02168       	74.193         	74.062645      	74.2135        	74.19932       	74.188         	73.93478       	74.09522       	74.15765       	74.356186      	74.29147       	74.08242       	74.26893       	73.91319       	74.32506       	74.1978        	74.15105       	74.02569       	74.21766       	74.30405       	74.1628        	74.09286       	74.154854      	74.180916      	74.102234      	74.085846      	74.30812       	73.85025       	73.997505      	74.308754      	74.17951       	74.46673       	74.185455      	74.20474       	74.009766      	74.17376       	74.32973       	74.22322       	74.302986      	73.95085       	74.24243       	73.95838       	74.24861       	74.278656      	74.07045       	74.26435       	73.982124      	74.299324      	74.187355      	74.15049       	74.10204       	74.330025      	74.00055       	74.3093        	74.13242       	74.27677       	73.9918        	74.21266       	74.24246       	74.10746       	74.06056       	74.1495        	74.08022       	74.21454       	74.126045      	74.21474       	74.33267       	74.192825      	73.88802       	74.23665       	74.17468       	
74.28029       	74.242035      	73.94724       	73.94188       	74.045006      	74.15951       	74.01771       	74.283676      	74.08333       	74.08822       	74.12381       	74.13211       	74.19202       	74.034836      	74.19797       	74.19624       	74.13669       	74.1405        	74.0584        	74.3084        	74.0804        	74.1452        	74.00302       	74.18598       	74.14216       	74.2413        	73.9972        	74.383965      	74.001854      	74.16678       	74.19021       	74.10563       	74.18457       	74.303894      	74.10924       	73.96867       	74.10407       	74.108376      	74.2184        	74.26542       	74.01945       	74.15961       	74.304214      	74.08669       	74.299164      	74.12984       	74.1706        	74.104836      	74.12881       	74.203186      	74.33095       	74.09345       	74.17162       	74.02528       	74.39814       	74.12431       	74.131775      	73.814575      	74.09201       	74.412674      	74.46306       	74.0322        	74.12981       	74.145615      	74.30921       	74.15137       	74.14745       	73.971344      	74.39894       	74.09395       	73.94606       	74.29841       	74.110054      	74.0689        	74.17407       	74.22633       	74.29392       	74.22249       	74.03367       	74.106514      	74.21356       	74.3466        	73.9529        	74.2475        	74.279945      	74.11048       	73.94282       	74.39903       	74.05203       	74.17811       	74.06235       	73.82347       	74.53134       	74.18286       	74.103455      	74.17216       	74.2296        	74.05421       	74.10398       	74.35085       	
74.23039       	74.16431       	73.82358       	73.98257       	74.07309       	73.99924       	74.05737       	74.2294        	74.176056      	74.12725       	74.03818       	74.13287       	74.18467       	74.04253       	74.216576      	74.07215       	73.95031       	74.37338       	74.0217        	74.18112       	74.22441       	74.02118       	74.22621       	74.15844       	74.003815      	74.15698       	74.19768       	74.02968       	74.15158       	74.0848        	74.07562       	74.25337       	74.160225      	74.16677       	74.01958       	74.28036       	74.17071       	74.26703       	74.00575       	74.18172       	74.24601       	74.205086      	74.094154      	74.12699       	73.96272       	74.20875       	74.24371       	74.2314        	74.146164      	74.13085       	74.05661       	72.08024       	74.60759       	73.99132       	74.43047       	74.07547       	74.1852        	74.19732       	73.93467       	74.262985      	74.29979       	74.16278       	74.07747       	74.10735       	74.27043       	74.268394      	74.09171       	74.1414        	74.339294      	74.10032       	74.091064      	74.1594        	74.19888       	74.20011       	74.006355      	74.1937        	74.20006       	74.20326       	74.063194      	74.12697       	74.27691       	73.997696      	74.23434       	73.957825      	74.35114       	74.157776      	74.1611        	74.123375      	73.99502       	74.06406       	74.320145      	73.99348       	74.38046       	74.0263        	74.275635      	74.22086       	73.99022       	74.02398       	73.99051       	74.280106      	
74.422386      	74.144005      	74.02465       	74.065544      	74.20778       	74.026535      	74.04679       	74.08079       	74.17285       	73.99768       	74.076996      	74.30772       	74.04032       	74.001335      	74.07997       	74.29162       	74.34871       	73.93092       	74.00166       	74.34872       	73.931046      	74.220375      	74.132164      	74.15032       	74.17316       	74.111946      	74.17459       	74.16832       	74.14172       	74.002464      	74.16017       	74.199585      	74.131805      	74.179         	73.98373       	74.18833       	74.19306       	74.17875       	74.18397       	74.226616      	73.98724       	74.20608       	74.1711        	74.23396       	73.96018       	74.25282       	74.27491       	74.035965      	74.210655      	74.0209        	74.298225      	73.85801       	74.29693       	74.31946       	73.9815        	74.161156      	74.24305       	74.21446       	74.03636       	73.96695       	74.5524        	74.08217       	74.34237       	74.26953       	74.20836       	73.935295      	74.038414      	74.22691       	74.42466       	74.1254        	74.11043       	74.24444       	74.02958       	74.17302       	74.277885      	74.09379       	74.03379       	74.21254       	74.25677       	74.141655      	74.11926       	74.22466       	74.26436       	74.18427       	74.17032       	74.0694        	74.00685       	74.184235      	74.29484       	74.13392       	73.979004      	74.15333       	74.2574        	74.17146       	74.094376      	74.225296      	74.05542       	74.004585      	74.05485       	74.329         	
74.23651       	74.126656      	74.21877       	74.129196      	74.02626       	73.90903       	73.94138       	74.51039       	74.11664       	74.078476      	74.140976      	74.26377       	74.056206      	74.06208       	74.217766      	74.06275       	74.09382       	74.271484      	74.169         	74.20943       	74.13423       	74.16275       	74.053276      	74.17238       	74.24612       	74.0277        	74.1893        	74.21958       	74.04664       	73.97479       	74.14616       	74.20924       	74.32784       	74.059845      	74.02538       	74.11577       	74.14368       	74.374115      	74.049515      	74.21159       	74.01762       	74.208336      	74.09757       	74.286354      	74.259186      	74.27929       	74.03738       	74.118         	74.243645      	74.326         	74.04572       	74.254074      	73.94526       	74.21999       	74.196175      	74.0622        	74.2732        	74.10274       	74.05357       	73.948         	74.44808       	74.337585      	74.15733       	74.37362       	74.08647       	74.05187       	74.16172       	74.03885       	74.30394       	74.097534      	74.05321       	74.01586       	74.10608       	74.40428       	74.18278       	74.14089       	74.26435       	74.065636      	74.11583       	74.30189       	74.113396      	74.10169       	74.13574       	74.23085       	74.09944       	74.1266        	74.19133       	74.26246       	74.240456      	74.04599       	74.075905      	74.04844       	74.18778       	74.14066       	74.11708       	74.156235      	74.066284      	74.29983       	74.06377       	74.22508       	
74.14551       	74.204994      	74.26529       	74.05255       	74.06861       	74.21878       	74.3342        	74.000946      	74.2084        	74.01513       	74.10513       	74.237015      	74.00604       	74.24649       	74.16292       	74.073494      	74.11307       	74.214485      	74.14291       	74.18679       	74.08475       	74.11071       	74.22222       	74.15554       	74.134094      	74.08208       	74.12905       	74.269875      	74.01482       	73.99832       	73.93081       	74.24299       	74.39029       	74.08783       	74.18702       	74.14944       	73.99016       	74.26427       	73.93433       	74.206924      	74.10853       	74.11605       	74.1395        	74.201996      	74.366486      	74.05552       	73.89813       	74.36263       	74.191536      	74.17875       	74.3056        	74.12343       	74.02561       	74.221245      	74.07599       	74.11869       	74.19866       	74.23478       	74.110344      	74.081955      	74.29782       	74.26161       	74.18017       	74.30014       	74.17896       	74.15095       	74.10057       	74.206024      	74.20828       	74.12865       	73.95246       	74.28121       	74.111244      	74.24477       	74.210304      	74.20641       	74.18196       	73.879845      	74.27937       	74.204636      	74.19748       	74.09809       	74.33121       	74.04062       	74.00134       	74.29279       	74.135414      	74.381325      	73.966995      	74.16052       	74.135925      	74.01149       	74.23223       	74.19355       	73.910805      	74.147606      	74.18031       	74.290306      	74.04243       	74.08337       	
74.17712       	74.1713        	74.11813       	73.867004      	74.13063       	73.91789       	74.21183       	74.1339        	73.92814       	74.37674       	73.97831       	74.03925       	74.206         	74.12103       	74.129005      	73.998604      	74.1915        	74.18163       	74.141365      	74.10092       	74.241875      	73.97696       	74.16989       	74.20206       	74.13287       	74.04609       	74.20693       	74.14675       	73.99861       	74.09997       	73.98647       	74.19211       	74.21415       	74.108246      	74.55975       	73.97449       	73.93017       	74.29798       	74.01603       	73.841484      	74.2843        	74.304245      	74.12744       	74.152855      	73.980865      	74.11323       	74.30953       	74.24967       	74.13689       	74.072784      	74.12508       	74.23683       	74.25449       	74.134224      	74.200325      	74.10964       	74.26853       	74.13188       	74.182175      	74.15606       	74.352         	74.238716      	74.21643       	74.24062       	73.95774       	74.0566        	74.11242       	74.18645       	74.22393       	74.22271       	74.07843       	74.284645      	74.1433        	74.06974       	74.072975      	74.24555       	74.21601       	74.129654      	74.264175      	74.10491       	74.396         	73.911095      	74.16767       	74.207504      	74.1178        	74.16859       	74.17463       	74.15796       	74.087         	74.22477       	73.90508       	74.130745      	74.36964       	74.20294       	73.9719        	74.88379       	73.3632        	72.94483       	73.98463       	71.82155       	
74.29171       	74.23312       	73.99708       	73.96027       	74.065445      	74.06355       	74.11169       	74.17391       	73.96263       	73.96285       	74.25127       	74.15474       	74.174736      	74.03961       	74.23941       	74.07599       	74.04796       	74.20841       	74.061264      	74.23641       	74.06567       	73.96598       	74.31522       	74.30801       	73.918106      	74.33561       	74.1407        	74.16847       	74.08385       	74.11853       	74.06824       	74.14226       	73.93416       	74.19711       	74.44384       	74.09338       	74.24475       	74.1055        	73.97247       	74.04834       	74.17627       	74.108185      	74.229805      	73.97953       	73.5773        	74.39473       	74.32853       	74.18656       	74.29395       	74.11396       	73.96672       	74.189644      	74.25123       	74.06334       	74.10862       	74.23648       	74.181015      	74.18507       	74.41388       	73.94387       	74.23173       	74.21679       	74.07829       	74.0872        	74.1281        	74.117714      	74.03026       	74.20596       	74.11633       	74.15385       	74.26172       	74.01866       	74.1787        	74.095764      	74.08171       	74.15225       	74.338806      	74.131546      	74.09185       	74.160446      	74.175255      	74.199936      	74.122826      	74.140305      	74.10888       	74.192276      	74.15681       	74.088486      	74.24824       	74.18696       	73.366394      	69.15211       	74.71694       	72.818954      	74.02928       	74.875015      	73.32458       	74.56983       	73.132706      	73.43547       	
74.08449       	74.05413       	74.03469       	74.07273       	74.13729       	74.084404      	74.02802       	74.13757       	74.01827       	74.28656       	74.14271       	74.10449       	74.19146       	74.06921       	74.11446       	74.09832       	74.1577        	74.09188       	73.92881       	74.28383       	74.165016      	74.14834       	74.23149       	74.12462       	74.16044       	74.26941       	74.0439        	74.23962       	74.04026       	73.046844      	73.13243       	73.54982       	73.04578       	74.37969       	71.15135       	73.76123       	76.118546      	74.4585        	73.4444        	73.99818       	73.462494      	69.63198       	72.766304      	73.26989       	75.77691       	72.84191       	71.2772        	73.08605       	73.2641        	74.490875      	75.36669       	71.3072        	74.90078       	72.445854      	74.103035      	72.87113       	75.47688       	73.19002       	73.78657       	73.58163       	79.18714       	75.92305       	73.74278       	73.916824      	74.023674      	74.171814      	74.05551       	74.139046      	74.0697        	74.10495       	74.10048       	74.15531       	74.27382       	74.036964      	74.04223       	74.10058       	74.07796       	74.242546      	74.1038        	74.094505      	74.01467       	74.05761       	74.172104      	74.240456      	74.12792       	74.23991       	73.35319       	73.60006       	74.41053       	74.183174      	69.344185      	68.64262       	74.109886      	74.26115       	74.18065       	74.36873       	73.89686       	74.32168       	74.27048       	74.04637       	
74.247635      	74.19171       	73.910385      	73.87491       	74.10841       	74.12561       	74.17048       	74.00665       	73.992         	74.16167       	74.18452       	74.08345       	74.09125       	74.11902       	74.10408       	74.01593       	74.21908       	74.06085       	74.14573       	74.20841       	73.99157       	74.25843       	74.09639       	74.12173       	74.146324      	74.13827       	74.11437       	74.25945       	73.77079       	71.400635      	74.5977        	73.870094      	73.975464      	73.940926      	74.0556        	73.88226       	74.18553       	74.4757        	73.70913       	73.94552       	74.00345       	73.7789        	73.97261       	74.40957       	74.27172       	74.223495      	74.24322       	73.93348       	74.06021       	74.079315      	74.3756        	74.03056       	74.13919       	74.18524       	74.04961       	74.163765      	74.29703       	74.0478        	74.23625       	74.17371       	78.92942       	77.711235      	73.4534        	73.74619       	74.07925       	73.95962       	74.182335      	74.161804      	74.04831       	74.08998       	74.201         	74.21161       	74.151436      	74.16504       	74.13691       	74.14721       	74.10297       	74.15329       	74.08747       	74.2732        	74.10848       	74.19643       	74.14052       	74.17222       	74.09705       	74.19235       	73.996025      	74.12487       	74.26431       	74.21345       	66.58221       	69.93069       	73.99318       	74.34417       	74.19484       	74.34653       	74.13701       	74.12399       	74.19672       	74.28453       	
74.27032       	72.33866       	71.329544      	73.89289       	74.14712       	73.96837       	74.04397       	74.27943       	74.03475       	74.073395      	74.09454       	74.21122       	74.15291       	74.190605      	74.06063       	74.036674      	74.289215      	74.07606       	74.08083       	74.14757       	74.076866      	74.27605       	74.07101       	74.06669       	74.006424      	74.272095      	74.107254      	74.16843       	73.94528       	67.309425      	73.04765       	74.34962       	74.24927       	74.09524       	74.28062       	74.17834       	74.13844       	74.19207       	74.069916      	74.10996       	74.256096      	74.266106      	74.18054       	74.01604       	74.241585      	74.11958       	74.211586      	74.25599       	74.091545      	74.21667       	74.06537       	74.12629       	74.27877       	74.32475       	73.880424      	74.08285       	74.280304      	74.178566      	74.09492       	74.47697       	79.254326      	77.61542       	73.68052       	73.958694      	74.05247       	74.07257       	74.21919       	74.032524      	74.2412        	73.94217       	74.24599       	74.169785      	74.08063       	74.16546       	74.132515      	74.1549        	74.22257       	74.12254       	74.2472        	74.05129       	74.09967       	74.17615       	74.260345      	74.2535        	74.06986       	74.10386       	74.25676       	74.07609       	74.13566       	74.20151       	67.54081       	73.90254       	74.282326      	74.03995       	74.141014      	74.13431       	74.1478        	74.18374       	74.21586       	74.11481       	
74.232414      	74.11874       	74.04579       	73.99628       	74.01562       	74.12395       	74.16707       	74.23604       	74.01817       	74.182556      	74.12466       	74.054825      	74.17638       	74.27051       	74.12308       	74.06536       	74.10855       	74.046394      	74.219765      	74.16762       	74.17233       	74.079895      	74.03627       	74.26321       	74.24722       	74.02037       	74.072495      	74.12358       	73.86693       	69.81459       	73.29679       	74.204025      	74.15682       	74.057884      	74.37276       	74.17654       	74.09019       	74.22695       	74.12906       	74.074646      	74.33606       	74.05715       	74.19085       	74.14914       	74.10248       	74.25909       	74.12065       	74.117836      	74.29063       	74.130325      	74.10012       	74.220505      	74.16386       	74.23358       	73.888336      	74.32147       	74.23314       	74.099106      	74.17938       	74.49413       	78.24784       	77.721016      	73.75681       	74.0674        	74.0688        	74.165665      	74.061554      	74.06173       	74.09153       	74.19786       	74.143555      	74.04274       	74.13111       	74.06616       	74.248344      	74.12082       	74.16502       	74.07208       	74.10252       	74.153465      	74.080605      	74.32768       	74.0686        	74.07428       	74.20049       	74.1702        	74.19652       	74.08258       	74.20169       	74.09159       	71.49942       	72.12267       	73.813484      	74.22743       	74.29325       	74.2361        	74.10895       	74.1847        	74.08011       	74.33459       	
74.17107       	74.12775       	74.03942       	73.98831       	74.019714      	74.10224       	74.09362       	74.15886       	74.0083        	74.188385      	74.173294      	74.12247       	74.05736       	74.15245       	74.1593        	74.19096       	74.1324        	74.1538        	73.98409       	74.20276       	74.15183       	74.11957       	74.24317       	74.10973       	74.114426      	74.22545       	74.025         	74.23191       	74.02452       	67.70352       	73.165306      	74.25327       	74.235         	74.0857        	74.24863       	74.100334      	74.26634       	74.12219       	74.08952       	74.237755      	74.15375       	74.17925       	74.25004       	74.247505      	74.10344       	74.17406       	74.17161       	73.95063       	74.25072       	74.11893       	74.24564       	74.071434      	74.16273       	74.25018       	74.21282       	74.257576      	74.12828       	74.17686       	74.2156        	74.56695       	79.773415      	76.20202       	73.83473       	74.142784      	74.00544       	74.27612       	74.11211       	73.986206      	74.19212       	74.08276       	74.18296       	74.2143        	74.13119       	74.15466       	74.12616       	74.133865      	74.19319       	74.18293       	74.13653       	74.0055        	74.23342       	74.169914      	74.28919       	74.103935      	74.022644      	74.25708       	74.14822       	74.23217       	74.22441       	73.99854       	73.29493       	70.73143       	73.31136       	74.11654       	74.29106       	74.180885      	74.30434       	74.07994       	74.15778       	74.12159       	
