# www.neaspec.com
# Scan:	 	Whitelight Imaging
# Project:	 	20251007_PS
# Description:	 	
# Date:	 	10/07/2025 16:01:01
# Scanner Center Position (X, Y):	[µm]	49.66	48.17	 
# Rotation:	[°]	0	 	 
# Scan Area (X, Y, Z):	[µm]	5.000	5.000	0.000
# Pixel Area (X, Y, Z):	[px]	100	100	1
# Interferometer Center/Distance:	[µm]	546.322	0.000	 
# Averaging:	 	1	 	 
# Integration time:	[ms]	5	 	 
# Wavenumber Scaling:	 	1.000000	 	 
# Laser Source:	 	4.5-15 µm nano-FTIR laser
# Detector:	 	R
# Target Wavelength:	[µm]	7.502	 	 
# Demodulation Mode:	 	Fourier
# Tip Frequency:	[Hz]	238,800.109	 	 
# Tip Amplitude:	[mV]	13.000	 	 
# Tapping Amplitude:	[nm]	74.298	 	 
# Modulation Frequency:	[Hz]	0.000	 	 
# Modulation Amplitude:	[mV]	0.000	 	 
# Modulation Offset:	[mV]	0.000	 	 
# Setpoint:	[%]	79.75	 	 
# Regulator (P, I, D):	 	4.206850	8.625812	1.000000
# Tip Potential:	[mV]	0.000	 	 
# M1A Scaling:	[nm/V]	0.426	 	 
# M1A Cantilever Factor:	 	1,000	 	 
# Q-Factor:	 	452.3	 	 
# Version:	 	2.1.11536.0
74.112045      	74.28274       	74.028984      	74.08104       	74.1798        	73.99963       	74.139465      	74.17936       	74.017746      	74.15645       	73.96121       	74.052826      	74.262115      	74.103325      	74.16349       	74.1388        	74.27093       	74.227325      	73.91178       	74.23195       	74.115875      	74.062996      	74.10417       	74.22954       	74.08758       	74.17148       	71.02907       	67.91835       	74.18911       	74.18984       	74.20444       	74.113304      	74.08631       	74.15249       	74.347946      	74.21576       	74.20552       	74.069725      	74.10011       	74.13251       	74.39866       	74.06557       	73.98884       	74.28778       	74.18726       	74.12667       	74.22477       	74.07024       	74.179146      	74.223625      	74.17084       	74.2153        	74.08527       	74.04345       	74.07289       	74.22254       	74.255035      	75.22064       	79.84947       	75.18918       	73.81154       	73.98336       	74.042595      	74.175735      	74.12521       	74.04762       	74.03904       	74.13899       	74.29861       	74.17491       	74.050575      	74.11469       	74.0817        	74.31778       	74.19495       	74.08481       	74.16562       	74.1317        	74.04444       	74.17875       	74.03991       	74.243576      	74.17368       	74.12174       	74.26105       	74.051094      	74.12995       	74.28801       	68.37271       	73.839485      	74.01649       	74.10877       	74.17896       	74.1053        	74.06794       	74.30467       	74.22175       	74.28406       	74.04285       	74.24297       	
74.2122        	74.22568       	74.26471       	74.22186       	74.15394       	73.87026       	74.10597       	74.25251       	74.22183       	74.0414        	74.182816      	74.044014      	74.195946      	74.15468       	74.151405      	73.96566       	74.09069       	74.24854       	74.11192       	74.04219       	74.148094      	74.10886       	74.285614      	74.37327       	73.91416       	74.15104       	68.40911       	68.49351       	73.889206      	74.31579       	74.15098       	74.21748       	74.12854       	74.286         	74.264885      	74.080864      	74.2833        	74.13908       	74.18329       	74.17316       	74.30305       	73.98259       	74.21281       	74.29306       	73.98432       	74.238625      	74.08186       	74.118996      	74.42242       	73.95229       	73.62999       	74.17462       	74.44956       	74.21063       	74.33963       	74.21611       	74.10342       	75.37538       	80.46648       	74.69831       	73.848045      	73.976776      	74.03831       	74.274895      	74.12118       	74.04763       	74.09109       	74.13785       	74.21673       	74.04921       	74.207054      	74.09085       	74.14606       	74.08346       	74.268074      	73.913055      	74.21951       	74.29276       	74.04574       	74.27257       	74.185776      	74.021645      	74.13515       	74.25796       	74.23455       	73.97408       	74.20164       	73.65003       	67.52273       	69.673164      	72.384865      	75.41217       	77.68215       	74.88636       	74.05749       	74.174446      	74.199646      	74.01538       	74.209045      	74.21921       	
74.13263       	74.23676       	74.270096      	74.109436      	74.06702       	74.119934      	74.117424      	74.21541       	74.08697       	73.97235       	74.10619       	74.08759       	74.257095      	74.08875       	74.0853        	74.25754       	74.0598        	74.005905      	74.2034        	74.27959       	74.10987       	74.10998       	74.149414      	74.26934       	74.19624       	74.14339       	67.26848       	72.95336       	73.74353       	74.485565      	74.38066       	74.21985       	74.19236       	74.12884       	74.21619       	74.249214      	74.27224       	73.91571       	74.14121       	74.37191       	74.2411        	74.18025       	74.007774      	74.09923       	74.23211       	74.037285      	74.266525      	74.2412        	74.02828       	74.02611       	73.609634      	74.15177       	74.50513       	74.46552       	74.11577       	74.091125      	74.23366       	75.2402        	80.34821       	75.24958       	73.75319       	74.048874      	74.321945      	74.15091       	74.153015      	74.06775       	74.139175      	74.28794       	74.12654       	74.10949       	74.18371       	74.161476      	74.14835       	74.131676      	74.122284      	74.19278       	74.198006      	74.103264      	73.98528       	74.11775       	74.036415      	74.15061       	72.66616       	74.557686      	74.40088       	73.69285       	68.481514      	68.99046       	69.43813       	70.36324       	72.566475      	74.662056      	76.98065       	77.8258        	78.22975       	76.65938       	73.89926       	74.03139       	74.11718       	74.22656       	
74.21409       	74.117325      	74.154205      	73.9448        	74.096         	74.15313       	74.19076       	74.08517       	74.167336      	74.01789       	74.0785        	74.12059       	74.17474       	74.19468       	74.16274       	74.14765       	74.02189       	74.247986      	74.11361       	74.239685      	73.9709        	74.09154       	74.19116       	74.22476       	74.09286       	74.1799        	61.626144      	73.46292       	73.99441       	74.09025       	74.1397        	74.325005      	74.17284       	74.05882       	74.17794       	74.13231       	74.23711       	74.2718        	74.01469       	74.1914        	74.28085       	74.187195      	74.00562       	74.12559       	74.21938       	73.96418       	74.21506       	74.17713       	74.1702        	74.187         	74.00388       	74.12259       	74.281685      	74.14941       	74.2326        	74.06499       	74.06797       	74.78153       	79.890205      	75.783714      	73.79058       	73.973274      	74.16648       	74.07515       	74.04974       	73.93839       	74.34178       	74.17524       	74.04638       	74.29619       	74.071106      	74.22421       	73.97618       	74.03285       	74.296814      	74.081535      	74.16402       	74.12308       	74.19091       	74.153755      	74.04233       	74.17091       	74.05581       	74.09703       	70.14103       	66.86582       	68.91992       	70.292595      	71.64975       	72.038895      	72.95775       	74.54006       	76.309326      	77.21967       	77.788475      	78.55863       	80.19335       	73.75916       	73.909615      	74.07135       	
74.13164       	74.16058       	74.09773       	74.03519       	74.09561       	74.17508       	74.00074       	74.05273       	74.17266       	74.059105      	74.196304      	74.10904       	74.12196       	74.11654       	74.1337        	74.066444      	74.16599       	74.20838       	74.12082       	74.129135      	74.123665      	74.17573       	74.1409        	74.092354      	74.10697       	74.06504       	68.673706      	68.81226       	74.00365       	74.17127       	74.224846      	74.15652       	74.33431       	74.257034      	74.21313       	74.16347       	74.095924      	74.20883       	74.23291       	74.07056       	74.17862       	74.20684       	74.26564       	74.17166       	74.13854       	74.153595      	73.968376      	74.32179       	74.24929       	74.12336       	74.101036      	74.151924      	74.15323       	74.1966        	74.13596       	74.16497       	73.94669       	74.710106      	79.793144      	76.959015      	73.62453       	74.163086      	73.91681       	74.20398       	74.09251       	73.973236      	74.16762       	74.22974       	74.02668       	74.212654      	74.200584      	74.147545      	74.051315      	74.14742       	74.12604       	74.22148       	74.17769       	74.07829       	74.1851        	74.11786       	73.99833       	74.21563       	73.35278       	68.98422       	67.41054       	65.67077       	70.18362       	71.899345      	72.22988       	72.894646      	73.631996      	74.6898        	75.987045      	77.04262       	78.21366       	78.713356      	80.01294       	78.08384       	74.01747       	74.47346       	
74.31924       	74.19152       	73.969025      	74.0546        	74.175964      	73.98805       	74.17593       	74.13536       	74.246315      	74.112686      	74.03262       	74.04995       	74.10475       	74.15901       	74.166374      	74.04513       	73.96616       	74.396614      	74.12524       	74.10424       	74.11712       	74.14366       	74.141174      	74.09841       	74.12938       	74.248764      	70.249466      	69.01568       	74.14397       	74.27113       	74.21162       	74.22001       	74.20212       	74.316185      	74.1751        	74.11579       	74.252495      	74.0496        	74.094124      	74.17284       	74.3028        	74.22544       	74.33862       	73.91156       	74.18369       	74.27251       	74.281456      	74.210686      	73.93463       	74.00682       	74.03519       	74.400406      	74.07266       	73.98983       	73.7949        	74.31129       	74.128845      	75.05721       	80.24954       	73.44995       	73.70111       	74.04119       	74.13811       	74.19455       	74.19885       	74.120316      	73.97807       	74.22637       	74.191734      	73.97311       	74.22098       	74.270035      	74.075424      	74.19829       	74.17947       	74.15359       	74.20784       	74.20248       	73.939095      	74.077446      	74.21242       	73.85146       	69.275185      	67.550415      	67.229576      	68.26431       	70.3058        	72.29152       	73.40908       	73.2876        	73.785194      	74.795654      	76.03443       	77.302086      	78.48965       	79.46766       	79.99019       	81.92304       	78.36038       	73.62927       	
74.132095      	74.23892       	74.2036        	73.925095      	74.00366       	74.12039       	74.14401       	74.04835       	74.11734       	74.19363       	74.03638       	74.14185       	74.198364      	74.23334       	74.14942       	74.08381       	73.973274      	74.17966       	74.172226      	74.00275       	74.09111       	74.22017       	74.16976       	74.17725       	74.29792       	74.253914      	67.47005       	72.82812       	74.22308       	73.777985      	73.97859       	74.27049       	74.437584      	74.4633        	73.14661       	74.635735      	75.94168       	72.12926       	74.374725      	74.09896       	74.79091       	75.35143       	74.35895       	72.79053       	74.32551       	76.50026       	73.0387        	74.80517       	67.24686       	74.60591       	68.949394      	74.549736      	74.119286      	72.450226      	73.473595      	72.02298       	74.900894      	75.451256      	74.30793       	74.08529       	74.208         	73.947975      	74.09817       	74.296616      	74.13192       	74.18076       	74.107185      	74.08451       	74.21061       	74.18854       	74.25059       	74.174774      	74.05809       	74.20209       	74.0998        	74.13004       	74.35177       	74.093155      	74.014595      	74.01561       	74.1144        	70.38888       	67.31147       	66.828835      	67.88639       	69.47328       	70.63152       	72.51119       	74.54792       	74.48848       	73.270035      	73.63817       	75.35236       	77.85366       	80.20082       	80.23275       	80.98897       	82.92189       	77.134254      	73.24453       	
74.32051       	74.07773       	73.97513       	74.19043       	74.259315      	74.088005      	73.993256      	74.21787       	74.06558       	73.97761       	74.2408        	74.13362       	74.135765      	74.05212       	74.22123       	74.14121       	74.215576      	74.19263       	74.110435      	74.032776      	74.06431       	74.20941       	74.15705       	74.25358       	74.08543       	74.139015      	74.21869       	73.75543       	73.99178       	73.59561       	73.965805      	74.43726       	73.440796      	75.28455       	74.197044      	74.175964      	74.239105      	73.96174       	74.25108       	74.266945      	74.11335       	74.30715       	74.13257       	74.24173       	74.02506       	74.18305       	74.14963       	74.24925       	74.134964      	74.080574      	74.03842       	74.05569       	74.244804      	74.02346       	74.27187       	74.0975        	74.1835        	74.2555        	74.13331       	74.3464        	74.184296      	74.18318       	74.05009       	74.21808       	74.196976      	74.12406       	74.31183       	74.01903       	74.14121       	74.175186      	74.00891       	74.46613       	74.045876      	74.06986       	74.193855      	74.151505      	74.175125      	74.23343       	74.04279       	73.91492       	71.57545       	69.662476      	65.492325      	66.412506      	68.50308       	69.533775      	70.8622        	73.563484      	76.97822       	76.06589       	73.09007       	72.91795       	75.27319       	78.26102       	80.19871       	80.20982       	81.57616       	83.41396       	77.18259       	73.451775      	
74.13384       	74.055084      	73.876915      	74.02623       	74.02557       	74.0107        	74.20779       	73.995026      	74.217766      	74.14828       	74.225815      	73.952545      	74.34485       	74.05748       	74.20638       	74.01525       	74.36305       	74.02984       	74.22003       	73.95958       	74.18521       	74.19052       	74.09653       	73.982765      	74.208595      	74.20779       	74.06168       	73.94676       	74.11595       	74.12124       	74.36024       	74.12892       	74.05827       	74.368774      	74.08939       	74.12387       	74.08421       	73.94104       	74.367         	74.1741        	74.20938       	74.19876       	74.12799       	74.01275       	74.21394       	74.20698       	74.11647       	74.17903       	74.09799       	74.22774       	73.94613       	74.22764       	74.10053       	74.192184      	74.09765       	74.13056       	74.14844       	74.14421       	74.36864       	74.17259       	74.33136       	74.12731       	74.032776      	74.15478       	74.16334       	74.27341       	74.16502       	74.09308       	74.17204       	74.04402       	73.27471       	74.3069        	74.2169        	74.2045        	74.14619       	74.16395       	74.15749       	74.14392       	74.036766      	73.50034       	68.521385      	70.07783       	70.75723       	65.99449       	69.65541       	68.839554      	70.815956      	75.80133       	78.662315      	77.29991       	73.13717       	72.652534      	75.59351       	78.252396      	79.593056      	80.81931       	81.79877       	83.887         	75.13403       	73.174446      	
74.15597       	74.11111       	73.87955       	74.027794      	74.21129       	73.99948       	74.01892       	74.076935      	74.17679       	74.09248       	74.17009       	74.02365       	74.20265       	74.09749       	74.27189       	74.02176       	74.15819       	74.17982       	74.100334      	74.158195      	74.14924       	74.17901       	74.10999       	74.15973       	74.10879       	74.158         	74.1343        	73.83235       	74.23226       	74.07679       	74.144295      	74.339775      	74.18519       	74.26044       	74.205925      	74.10339       	74.142456      	74.02474       	74.199005      	74.210495      	74.237465      	74.214745      	73.97174       	74.29325       	74.06925       	74.14589       	74.126595      	74.19363       	74.11441       	74.18006       	74.24198       	74.13549       	74.062645      	74.07302       	74.23377       	73.992256      	74.08372       	74.14632       	74.287674      	74.37398       	74.10663       	74.32382       	74.02149       	74.16759       	74.14941       	74.107506      	74.22977       	74.19335       	74.09962       	74.104515      	74.25685       	74.31984       	74.07337       	74.02417       	74.17883       	74.12323       	74.0641        	74.149216      	74.315056      	73.91432       	70.3078        	69.00254       	64.440414      	69.91638       	65.8895        	70.17137       	72.88271       	75.47698       	78.21384       	76.28729       	73.594666      	73.1916        	75.59422       	78.22278       	79.21449       	80.82874       	82.0286        	83.79544       	73.659195      	73.48427       	
74.18071       	74.24913       	74.01643       	73.99654       	74.11182       	74.092865      	74.17702       	74.212135      	74.07571       	74.10134       	74.190994      	74.10243       	74.160126      	74.010994      	74.18883       	74.1221        	74.09546       	74.14903       	74.21979       	74.09989       	74.16815       	74.216324      	74.05189       	74.08107       	74.25329       	74.27929       	74.00058       	73.77231       	74.00625       	74.19514       	74.30851       	74.28054       	74.182495      	74.09766       	74.25488       	74.275826      	74.0881        	74.12194       	74.20596       	74.133896      	74.11963       	74.2613        	74.10736       	73.99424       	74.28111       	74.117294      	74.19861       	74.23457       	74.08928       	74.09885       	74.14243       	74.11332       	74.3553        	74.03277       	74.04375       	74.289116      	73.920456      	74.07274       	74.3665        	74.334435      	74.017815      	74.187775      	74.18833       	74.3175        	74.06302       	74.20207       	74.21367       	74.17638       	74.19525       	74.09662       	74.1124        	74.22378       	74.11012       	74.142914      	74.08271       	74.21908       	74.134094      	74.0556        	74.11778       	74.0366        	73.041626      	68.5248        	67.05136       	67.07307       	67.41031       	69.3218        	73.73331       	75.14765       	75.64048       	75.7725        	73.75666       	73.50888       	76.091576      	77.795456      	78.578926      	80.97243       	82.91794       	81.8349        	72.7236        	73.81286       	
74.328415      	74.12577       	74.328606      	73.90635       	74.10838       	74.12229       	74.09318       	74.06565       	74.194374      	74.19346       	74.01053       	74.23077       	74.38715       	73.95713       	74.07235       	74.06807       	74.15628       	74.35978       	73.94105       	74.15015       	74.11519       	74.07376       	74.288284      	74.23539       	74.17728       	74.00617       	74.125244      	73.98618       	74.06715       	74.167725      	74.171776      	74.15314       	74.14536       	74.20129       	74.25848       	74.28164       	74.1716        	74.20347       	73.986046      	74.29222       	74.000725      	74.07939       	74.21496       	74.23542       	74.01855       	74.14042       	74.22911       	73.998375      	74.28918       	74.072815      	74.18683       	74.190094      	74.02677       	74.28203       	74.181076      	74.10897       	74.15429       	73.90769       	74.385124      	74.36309       	74.16056       	74.16347       	74.06516       	74.18059       	74.21306       	74.091         	74.06821       	74.22588       	74.24114       	74.08905       	74.093994      	74.224846      	74.20417       	74.16322       	73.89347       	74.23674       	74.17743       	74.19354       	74.00772       	74.19495       	74.14162       	71.56446       	68.45382       	66.95969       	67.45254       	69.45762       	72.01413       	73.43914       	75.05219       	75.321815      	74.07918       	74.13321       	76.284386      	77.0912        	78.855125      	81.01425       	83.43123       	78.278694      	73.07993       	73.7538        	
74.20251       	74.156296      	74.1931        	73.9891        	74.02675       	74.30666       	73.97479       	74.14976       	73.94781       	74.2444        	74.11578       	74.090515      	74.09876       	74.159325      	74.20068       	74.150505      	74.07749       	74.08946       	74.19201       	74.30694       	74.1089        	74.01334       	74.102325      	74.35745       	74.24745       	74.062386      	74.15753       	73.96084       	73.80465       	74.32061       	74.23851       	74.21316       	74.123505      	74.09006       	74.21692       	74.20132       	74.217285      	74.02528       	73.89203       	74.25517       	74.20256       	74.18725       	74.337654      	74.14441       	73.94304       	74.18645       	74.29007       	74.117935      	74.20034       	74.147255      	74.103615      	74.14003       	74.24172       	74.13681       	74.29383       	73.95829       	74.090195      	74.15905       	74.288795      	74.11097       	74.17068       	74.24562       	74.294365      	74.08772       	74.16003       	74.06697       	74.283104      	74.20303       	74.21972       	74.02188       	73.98075       	74.24558       	74.22179       	74.21851       	73.94219       	74.08519       	73.88012       	74.176445      	74.26347       	74.15275       	74.15073       	73.89663       	70.96529       	67.652985      	66.27588       	67.95596       	71.79924       	73.24092       	74.33402       	74.715256      	74.09412       	74.81574       	76.25752       	77.325356      	78.87857       	81.87998       	82.79473       	72.98926       	73.790825      	73.92277       	
74.19443       	74.135544      	73.96116       	74.044876      	74.16008       	74.04707       	74.05914       	74.158226      	74.10893       	74.08057       	74.03628       	74.226715      	74.15958       	74.18562       	74.212814      	73.98313       	74.12905       	74.21354       	74.1998        	74.23473       	74.02067       	73.964874      	74.11027       	74.20619       	74.233475      	74.06708       	73.86199       	74.22203       	74.10517       	74.22244       	74.22909       	74.244484      	74.03208       	74.23469       	74.35356       	74.03984       	74.121315      	73.901146      	73.88895       	74.20007       	74.14251       	74.3666        	74.122986      	74.35297       	74.16005       	74.16906       	74.180626      	74.150696      	74.07079       	74.11575       	74.13037       	74.134         	74.359116      	74.14965       	74.12508       	74.053185      	74.13525       	74.07105       	74.43185       	74.264114      	74.22943       	74.12339       	74.06855       	74.19424       	74.20094       	74.09584       	74.11843       	74.07957       	74.22662       	74.20966       	74.18482       	74.07376       	74.074905      	74.2121        	74.23384       	74.25653       	73.99001       	74.35467       	74.14443       	73.96244       	74.186874      	74.26538       	73.83687       	71.13767       	65.96024       	68.62577       	71.733505      	72.65845       	73.63781       	73.989426      	74.18095       	75.16057       	76.39187       	77.469345      	79.681885      	81.9794        	76.812546      	73.62103       	73.873985      	73.73037       	
74.33124       	74.24119       	74.08783       	73.99479       	73.99037       	74.04714       	74.04481       	74.174835      	73.98124       	74.02958       	74.14082       	74.14185       	74.04546       	74.11581       	74.13051       	74.17318       	74.15832       	74.108025      	74.22153       	73.86393       	74.30484       	74.26496       	74.04468       	74.09932       	74.11753       	74.156166      	73.99962       	73.9448        	74.14631       	74.06977       	74.437294      	74.14812       	74.10173       	74.27372       	74.12038       	74.26528       	74.171646      	74.12809       	74.029816      	74.054085      	74.01528       	74.227036      	74.29022       	74.22256       	74.26409       	74.198074      	74.22839       	74.03176       	74.17139       	74.01468       	74.14244       	74.27078       	74.196915      	74.0501        	74.21357       	74.198         	74.11577       	74.0051        	74.30965       	74.30195       	74.19791       	73.99011       	74.21095       	74.228806      	74.10148       	74.17552       	74.08992       	74.004005      	74.196884      	74.26795       	74.12788       	74.1138        	74.22745       	74.124466      	74.18497       	74.15122       	74.17187       	74.2013        	74.13167       	74.087395      	74.24183       	73.96393       	74.18713       	74.2064        	72.92064       	69.31619       	70.72824       	71.1143        	71.51331       	72.984856      	73.59588       	74.712074      	76.45076       	78.590904      	81.15908       	78.19037       	73.679276      	74.01166       	73.94607       	73.69669       	
74.20688       	74.08692       	73.93058       	74.14031       	73.98523       	74.16327       	74.005325      	74.227974      	74.03084       	73.94391       	74.07956       	74.18098       	74.23422       	74.27823       	73.91022       	74.0632        	74.17031       	74.28958       	74.10963       	74.003975      	74.102936      	74.31284       	74.0571        	74.178345      	74.18033       	74.07968       	74.21883       	73.83882       	73.93005       	74.23644       	74.11049       	74.38348       	74.32355       	74.06457       	74.06819       	74.27188       	74.10389       	74.11086       	74.238914      	74.17012       	74.15428       	74.13641       	74.11185       	74.10654       	74.324844      	74.04242       	74.217064      	74.13081       	74.227875      	74.13783       	74.23452       	74.01697       	74.20166       	74.05667       	74.169304      	74.26825       	74.098946      	74.04367       	74.35673       	74.27302       	74.092735      	74.23727       	74.1273        	74.06861       	74.16775       	74.16357       	74.23929       	74.21633       	74.14089       	74.13481       	74.20658       	74.20779       	74.168144      	73.94207       	74.135704      	74.21214       	74.11617       	74.3138        	74.004326      	74.204834      	74.11551       	74.156075      	74.11829       	74.24574       	73.95172       	73.95784       	74.1331        	72.59973       	69.79087       	71.05824       	72.72576       	73.9071        	76.948654      	79.74546       	76.3025        	74.00406       	74.21337       	74.22445       	74.145874      	73.88982       	
74.27878       	74.30125       	74.03305       	73.82428       	74.04854       	74.07769       	74.00807       	74.1559        	74.210594      	74.09401       	74.14351       	73.939514      	74.309845      	74.267525      	73.95311       	74.08913       	74.171974      	74.28708       	74.007454      	74.132         	74.2212        	74.0859        	74.13249       	74.08519       	74.22175       	74.24128       	73.97006       	73.99395       	73.99902       	74.1658        	74.26842       	74.19781       	74.295395      	74.1128        	74.161804      	74.130486      	74.09887       	74.351715      	74.0181        	74.095665      	74.246155      	74.18748       	74.09178       	74.08644       	74.11795       	74.2132        	74.22695       	74.106384      	74.23771       	74.11432       	74.20015       	74.14541       	74.12181       	74.16666       	73.97          	74.32041       	74.14552       	74.01671       	74.33657       	74.07645       	74.209854      	74.202805      	74.06325       	74.248795      	74.03248       	74.16769       	74.145164      	74.06669       	74.30781       	74.14329       	74.16406       	74.10421       	74.29247       	74.164536      	74.10508       	74.13538       	74.14404       	74.27972       	74.06221       	74.11208       	73.991776      	74.23521       	74.2404        	73.91962       	74.126434      	74.458466      	74.11279       	74.127045      	74.0445        	73.57961       	73.395164      	74.74696       	74.666916      	74.23756       	74.275345      	74.23827       	74.1895        	73.99136       	74.19986       	74.1716        	
74.19089       	74.162994      	74.06829       	73.9574        	73.983864      	74.24689       	74.13585       	74.11631       	74.13376       	74.09982       	74.21748       	74.07213       	73.918495      	74.213         	74.351364      	74.060295      	74.08046       	74.05648       	74.26726       	74.15565       	74.10549       	74.13687       	74.04197       	74.10234       	74.17077       	74.22919       	74.00836       	73.93618       	74.03894       	74.19162       	74.08359       	74.38943       	74.23665       	73.97249       	74.34961       	74.13929       	74.14108       	74.13045       	74.07388       	74.30538       	74.12858       	74.22989       	74.11819       	74.127174      	74.17174       	74.07219       	74.29449       	74.071526      	74.07968       	74.31421       	73.98603       	74.332886      	74.15792       	74.12942       	74.12012       	74.13203       	74.12959       	74.04577       	74.52129       	74.056335      	74.340324      	73.89797       	74.185776      	74.11392       	74.40337       	74.16813       	74.17506       	74.03393       	74.13415       	74.18214       	74.255974      	74.18956       	73.984215      	74.20216       	74.24725       	74.12019       	74.18877       	74.146965      	74.13331       	74.069885      	74.04943       	74.1508        	74.22275       	74.27066       	74.026505      	74.22572       	74.018486      	73.96624       	74.42996       	73.876465      	74.08717       	74.31806       	74.13907       	74.14298       	74.39658       	74.1349        	74.11673       	74.13822       	74.14563       	73.81382       	
74.147964      	74.10831       	73.98933       	74.099495      	74.118835      	74.12312       	74.12973       	74.01319       	74.129364      	74.09096       	74.18447       	74.0584        	73.995026      	74.19344       	74.23364       	74.0229        	74.14132       	74.051506      	74.32218       	74.07807       	74.14328       	74.20216       	74.11081       	73.98324       	74.16613       	74.02049       	74.302895      	73.98674       	73.98749       	74.26092       	73.98148       	74.25088       	74.33278       	74.18947       	74.269806      	74.02457       	74.065254      	74.19351       	74.04444       	74.24681       	74.246086      	74.03643       	74.18427       	74.13277       	74.28731       	74.11111       	74.159805      	74.19809       	74.09364       	74.21239       	73.94185       	74.164604      	74.20421       	74.225525      	74.075745      	74.11281       	74.278625      	74.151115      	74.31409       	74.19505       	74.13014       	74.09023       	74.21593       	74.10195       	74.22951       	74.232506      	74.22292       	74.07645       	74.24505       	74.176575      	74.2179        	74.17284       	74.079155      	74.20617       	74.06953       	74.115074      	74.32288       	74.16761       	74.04513       	74.07503       	74.12206       	74.29993       	74.15244       	73.98895       	74.25262       	74.104225      	74.189804      	74.16336       	74.09212       	73.61783       	73.87478       	74.43657       	74.14019       	74.18755       	74.136894      	74.27972       	74.21968       	73.99676       	74.31046       	73.92541       	
74.17515       	74.16106       	74.04236       	74.0627        	74.130066      	74.068726      	74.094604      	74.022354      	74.16939       	74.293106      	74.17199       	74.06912       	74.149826      	74.176735      	74.086         	74.09924       	74.15869       	74.15531       	74.24135       	73.944725      	74.21877       	74.09021       	74.202866      	74.16324       	74.10367       	74.17746       	74.0967        	73.920166      	74.02352       	74.308014      	74.09806       	74.25223       	74.085175      	74.29473       	74.21816       	74.134834      	74.120895      	74.13937       	74.09547       	74.32149       	74.02333       	74.2259        	74.17311       	74.068924      	74.242         	74.18694       	73.93749       	74.34578       	74.28084       	74.11467       	74.15279       	74.088745      	74.14393       	74.01766       	74.12243       	74.20573       	74.30892       	74.06794       	74.04844       	74.464645      	74.21304       	74.016914      	74.12904       	74.10827       	74.145195      	74.1867        	74.22465       	73.936745      	74.32321       	74.04742       	74.26837       	74.24066       	74.080414      	74.30098       	74.11447       	73.99766       	74.42749       	74.17604       	73.974434      	74.13207       	74.3146        	73.994576      	74.10227       	74.12525       	74.20264       	74.205086      	74.04371       	74.23823       	74.04747       	74.06246       	74.13581       	74.2106        	74.18877       	74.13866       	74.17282       	74.22462       	74.21774       	74.08594       	74.001526      	73.88402       	
74.20971       	74.157974      	74.034386      	74.00856       	74.26119       	73.91682       	74.14597       	74.18803       	74.07864       	74.20124       	74.031425      	74.12571       	74.05122       	74.17853       	74.12914       	74.28003       	74.08679       	74.00385       	74.19531       	74.26814       	74.13987       	74.13179       	74.131386      	74.179         	74.23415       	74.11473       	74.132515      	73.81728       	74.31151       	74.250824      	74.017265      	74.22504       	74.201096      	74.06531       	74.289085      	74.11356       	74.24349       	74.14745       	73.85239       	74.39492       	74.23857       	74.039444      	74.191246      	74.189186      	74.26198       	74.235085      	74.07593       	74.04852       	74.34853       	74.15978       	74.08698       	73.93546       	74.26957       	74.27617       	74.12004       	74.02271       	74.201706      	74.18917       	74.25003       	74.25828       	74.04361       	74.232216      	74.30035       	73.97956       	74.22397       	73.89977       	74.267265      	74.23996       	74.079124      	74.32589       	74.13875       	74.20008       	74.131294      	74.19042       	74.001564      	74.36485       	74.18669       	74.14983       	74.021164      	74.14742       	74.14139       	74.20201       	74.0692        	74.29028       	74.16629       	74.15595       	74.01491       	74.15873       	74.118355      	74.15659       	74.2361        	74.25785       	74.18727       	74.138885      	73.992645      	74.126686      	74.02362       	74.28316       	74.3142        	74.05516       	
74.217636      	74.26056       	73.978         	73.88492       	74.14678       	74.19144       	74.02202       	74.1429        	74.026726      	74.10799       	74.30215       	73.929276      	74.11896       	74.22213       	74.08372       	74.10364       	74.11104       	74.11449       	74.16036       	74.0385        	74.15442       	74.41552       	73.956085      	74.040405      	73.979256      	74.24359       	74.056595      	74.03243       	74.08422       	74.20801       	74.21466       	74.13325       	73.99074       	74.136375      	74.23062       	74.23554       	74.16601       	74.149826      	74.15092       	74.1528        	74.02998       	74.032875      	74.14009       	74.29733       	74.457214      	73.98117       	74.18878       	74.24243       	74.345726      	74.05532       	73.94949       	74.25085       	74.269875      	74.15064       	74.13641       	74.083916      	74.03135       	74.102         	74.19691       	74.42901       	74.005486      	74.04188       	74.39282       	74.15975       	74.26085       	74.09357       	74.24211       	74.19172       	74.00341       	74.229164      	74.146194      	74.07051       	74.05981       	74.319336      	74.190575      	74.233505      	74.113106      	74.201256      	74.162346      	74.144844      	74.17651       	74.20649       	74.02758       	74.21972       	74.09829       	73.901535      	74.426704      	74.26969       	73.83193       	74.04953       	74.211876      	74.284325      	74.28365       	74.12391       	74.16376       	74.2093        	73.95304       	74.25611       	74.25174       	74.19122       	
74.30245       	74.2806        	73.88829       	73.94906       	74.04258       	74.1055        	74.256905      	74.07662       	74.06037       	74.08121       	74.11552       	74.303         	74.04          	74.22412       	74.15998       	74.09899       	73.9888        	74.23128       	74.03336       	74.11701       	74.05727       	74.258484      	74.2511        	74.07947       	74.135994      	74.04262       	74.10029       	74.24624       	74.09657       	74.07459       	74.1191        	74.10289       	74.192825      	74.22957       	74.09662       	74.205986      	73.988976      	74.24335       	74.17809       	74.06881       	74.20529       	73.94189       	74.18796       	74.23796       	74.27474       	74.24667       	73.93734       	74.35679       	74.1862        	74.242645      	73.99806       	74.28632       	74.21584       	74.13866       	74.14957       	73.97253       	74.112816      	74.17323       	74.26377       	74.28525       	74.193985      	74.08239       	74.12888       	74.18589       	74.21312       	74.111855      	74.34923       	74.03709       	74.35092       	74.04547       	74.11101       	74.12751       	74.32406       	74.131546      	74.12168       	74.08548       	74.130745      	74.1006        	74.28418       	74.17951       	74.09849       	74.16252       	74.173874      	74.15354       	74.17688       	74.00395       	74.31355       	74.03235       	74.24313       	73.82625       	74.29125       	74.40523       	74.153206      	74.1225        	74.32301       	73.92877       	74.14136       	74.28531       	74.17609       	74.07508       	
74.20501       	74.38046       	74.19388       	74.04013       	73.96124       	74.19594       	73.986565      	74.06213       	74.21013       	74.2491        	74.00777       	74.132286      	74.07428       	73.98243       	74.23967       	74.1643        	74.2341        	73.95797       	74.08128       	74.17813       	74.08267       	74.2165        	74.12631       	74.2506        	74.125755      	74.18929       	74.0883        	74.0162        	74.418915      	74.05063       	74.04205       	74.097626      	74.18451       	74.07127       	74.257744      	74.160225      	73.9822        	74.22031       	74.1082        	74.14153       	74.21411       	74.02992       	74.11981       	74.13289       	74.32814       	74.33384       	74.01124       	74.30498       	74.22034       	74.20425       	73.99291       	74.24359       	74.10264       	74.09187       	74.341515      	74.056786      	73.93362       	74.299385      	74.39204       	74.22779       	74.143875      	74.13496       	74.073975      	74.053825      	74.093704      	74.20601       	74.02913       	74.22564       	74.32715       	74.29651       	74.21342       	74.0417        	74.32102       	73.919945      	74.20728       	74.262024      	73.9828        	74.09371       	74.068665      	74.30859       	74.27995       	74.098236      	74.11147       	74.11064       	74.234146      	74.148994      	74.11223       	73.93977       	74.171555      	74.004326      	73.90348       	74.35068       	74.09279       	74.18961       	74.17226       	74.18521       	73.91492       	74.433304      	74.02919       	74.20873       	
74.306206      	74.3154        	74.058655      	73.88406       	74.16801       	74.21457       	73.95679       	74.095695      	74.11021       	74.21598       	74.12329       	74.07403       	74.19228       	74.14041       	74.10981       	73.97751       	74.26803       	74.17693       	74.124725      	74.12221       	74.06577       	74.24038       	74.197525      	74.25466       	74.13755       	73.96386       	74.11269       	74.10717       	74.05487       	74.30993       	74.20459       	73.99551       	74.33924       	74.11498       	74.23706       	74.0834        	74.03404       	74.13323       	74.12401       	74.140724      	74.26311       	74.14842       	74.04396       	74.22851       	74.291176      	74.21921       	74.04163       	74.21763       	74.18837       	74.27166       	74.13784       	74.10386       	74.14093       	74.15166       	74.18515       	74.115204      	73.88583       	74.28297       	74.224         	74.38314       	74.10938       	74.22574       	74.16561       	74.11308       	74.27267       	74.161125      	73.993195      	74.02858       	74.149796      	74.28333       	74.22122       	74.04905       	74.22661       	74.14672       	74.1703        	74.29961       	74.12532       	73.99097       	74.04861       	74.09789       	74.445015      	74.08018       	74.17241       	73.99179       	74.28185       	74.32251       	74.05995       	74.17444       	74.0975        	73.92432       	74.080055      	74.37313       	74.245285      	74.22704       	74.0256        	74.09841       	74.27194       	74.31596       	74.237495      	73.932         	
74.11653       	74.10827       	74.15847       	74.22627       	73.96978       	74.17555       	74.141685      	74.23237       	74.13553       	74.05711       	74.19485       	74.08675       	74.06348       	74.04333       	74.21892       	74.21529       	74.08185       	73.961975      	74.33854       	74.13626       	74.12235       	73.97944       	74.27663       	74.11188       	74.3348        	74.083206      	74.10743       	73.8446        	74.1706        	74.19998       	74.24436       	74.19976       	74.118774      	74.04549       	74.16504       	74.09          	74.14567       	74.1196        	74.13582       	74.10814       	74.14283       	74.18326       	74.07046       	74.10889       	74.27579       	74.19378       	74.28762       	73.95192       	74.182144      	74.18065       	74.21511       	74.15646       	74.07862       	74.32031       	74.24566       	73.84701       	74.24749       	74.17687       	74.31834       	74.210884      	74.10916       	74.25476       	74.14572       	74.284065      	74.14394       	74.18686       	74.06968       	74.11322       	74.11803       	74.1151        	74.30354       	74.11727       	74.04786       	74.266945      	74.06341       	74.16136       	74.311264      	74.28676       	74.13242       	74.04433       	74.14894       	74.07056       	74.147804      	74.33086       	74.00901       	74.19647       	74.256195      	74.070206      	74.06081       	73.86015       	74.15405       	74.49906       	74.13723       	74.31718       	74.091324      	74.14012       	74.28625       	74.201256      	74.23889       	73.98938       	
74.08038       	74.16507       	74.14968       	74.01079       	73.98758       	74.16232       	74.18859       	74.00219       	74.2619        	74.21081       	74.18633       	73.90584       	74.10505       	74.340836      	74.079544      	74.20896       	74.06409       	74.079         	74.282616      	74.06518       	74.10726       	74.17446       	74.141846      	74.20319       	74.09126       	74.13089       	74.218285      	73.92745       	73.90471       	74.13929       	74.525955      	74.12171       	74.027275      	74.213715      	74.078125      	74.30208       	74.068756      	74.28504       	74.00346       	73.94206       	74.112175      	74.0968        	74.11846       	74.082726      	74.36139       	74.280556      	74.0862        	74.248566      	74.19246       	74.25554       	74.10047       	74.130226      	74.16415       	74.21385       	74.10335       	73.9126        	74.3742        	74.40725       	74.23211       	74.1383        	74.16614       	74.00872       	74.22117       	74.16771       	74.416435      	74.17895       	74.03874       	74.22201       	74.09224       	73.99173       	74.41981       	74.08916       	74.0684        	74.2636        	73.944565      	74.10358       	74.3888        	74.1619        	73.96878       	74.29528       	74.120705      	74.05381       	74.23178       	74.24329       	73.988556      	74.28409       	74.22489       	74.100235      	74.07356       	74.076805      	73.94941       	74.27118       	74.271805      	74.099266      	74.233284      	74.08603       	74.26224       	74.248116      	74.190186      	74.093605      	
74.17583       	74.07331       	74.13598       	74.11302       	74.04881       	74.10506       	74.25026       	74.14722       	74.0633        	74.10969       	74.01899       	74.107864      	74.131935      	74.09382       	74.12423       	74.022545      	74.297714      	74.09542       	74.12913       	74.222404      	74.15269       	74.23785       	73.941986      	74.202034      	74.1787        	74.1335        	74.10595       	73.84265       	73.93102       	74.131905      	74.24306       	74.311066      	74.223946      	74.109795      	74.14917       	74.20299       	74.29316       	74.112274      	74.246605      	74.07134       	73.961685      	74.14085       	74.27015       	74.33309       	74.10297       	74.1963        	74.14638       	74.162605      	74.1538        	74.09023       	74.20824       	74.12149       	74.259476      	74.060646      	74.17237       	74.06539       	74.140686      	74.244705      	74.13958       	74.29718       	74.16303       	72.7415        	74.23095       	74.25109       	74.31222       	74.20483       	74.08333       	74.17956       	74.15835       	74.10165       	74.155014      	74.1898        	74.100365      	74.227264      	74.20321       	74.18441       	74.117195      	74.05387       	74.28127       	73.98656       	74.15866       	74.23903       	74.08506       	74.22973       	74.221176      	74.23294       	74.05728       	74.13695       	74.1684        	74.164566      	74.12654       	73.987335      	74.10161       	74.119484      	74.32381       	74.22303       	74.14599       	74.16234       	74.07856       	74.161194      	
74.21558       	74.221794      	74.187096      	73.997856      	73.96493       	74.09351       	74.12999       	74.02968       	74.17915       	74.24534       	74.20048       	74.156364      	74.027115      	74.239624      	74.155205      	73.867386      	74.279236      	74.13884       	73.97488       	74.10105       	74.27608       	74.0601        	74.23446       	74.06182       	74.415535      	74.10374       	74.09433       	73.99061       	73.98506       	74.0254        	74.25179       	74.12639       	74.28718       	74.18682       	74.18502       	74.19535       	74.15172       	74.23884       	74.153046      	74.12495       	74.021545      	74.09955       	74.27337       	74.153366      	74.037766      	74.0784        	74.33519       	74.23928       	74.15193       	74.00161       	74.07492       	74.361664      	74.16019       	74.165436      	74.1116        	74.088135      	74.01538       	74.10568       	74.480774      	74.074974      	73.98148       	74.17322       	74.35416       	74.200615      	74.21219       	74.06875       	74.2409        	74.227974      	73.875916      	74.0588        	74.26237       	73.94978       	74.29572       	74.08704       	74.36574       	74.01499       	74.14052       	74.31241       	74.00524       	74.233444      	74.20238       	74.151695      	74.23763       	74.01363       	74.212814      	74.11959       	74.09795       	74.22815       	74.11209       	73.874825      	74.40734       	74.06919       	74.12866       	74.286736      	74.1457        	74.0473        	74.156105      	74.26966       	74.23517       	74.09206       	
74.360535      	74.4078        	74.13692       	73.81647       	74.08674       	74.13708       	74.03341       	74.17684       	74.02563       	74.136055      	74.31053       	74.02511       	74.178024      	74.09644       	74.24671       	74.088806      	74.15662       	74.08039       	74.23732       	74.05457       	74.18402       	74.13306       	74.14035       	74.17508       	74.07883       	74.23255       	74.06096       	74.16333       	73.97194       	74.11498       	74.13152       	74.14773       	74.14004       	74.10273       	74.35564       	74.13346       	74.23333       	74.26756       	74.108086      	74.16911       	73.8913        	74.20478       	74.30528       	74.089935      	74.110405      	74.07319       	74.06367       	74.25756       	74.20834       	74.16724       	74.074486      	74.25369       	74.11759       	74.27639       	74.10921       	74.07556       	73.98957       	74.18075       	74.36119       	74.071945      	73.91854       	74.28058       	74.06392       	74.26047       	74.297485      	74.23869       	74.14011       	74.111046      	74.08996       	74.14927       	74.22088       	74.18982       	74.04268       	74.17805       	74.06526       	74.03126       	74.3798        	74.280945      	74.17552       	74.10519       	74.038994      	74.133835      	74.13547       	74.17239       	74.18908       	74.0709        	74.20723       	74.12164       	74.119644      	73.9169        	74.138         	74.176445      	74.25362       	74.19978       	74.26401       	74.39287       	73.879326      	74.12179       	74.20918       	74.02473       	
74.14758       	74.26681       	74.143265      	73.95072       	73.876945      	74.2382        	74.20319       	74.10687       	73.87494       	74.438484      	73.933105      	74.11081       	74.1224        	74.213005      	74.32717       	73.90348       	74.18694       	74.06869       	74.17369       	74.09832       	74.13858       	74.27264       	74.13097       	74.28506       	74.060326      	74.26314       	74.027626      	74.0642        	74.1395        	74.02326       	74.234184      	73.95863       	74.12286       	74.11816       	74.1943        	74.27177       	74.19749       	74.191055      	74.145584      	74.387375      	74.06943       	73.97737       	74.1665        	74.16941       	74.01033       	74.21115       	74.20553       	74.21521       	73.8846        	74.25432       	74.18173       	74.274475      	74.17144       	74.17077       	74.2128        	73.93177       	74.25699       	74.22612       	74.23749       	74.218636      	74.15297       	74.30913       	74.075584      	74.15101       	74.16604       	74.125244      	74.08422       	74.22783       	74.140114      	74.19258       	74.14318       	74.0522        	74.11429       	74.324356      	74.15979       	74.102036      	74.31032       	74.098946      	74.14561       	74.1886        	74.21283       	74.048996      	74.105286      	74.28589       	74.10698       	74.28187       	74.153854      	73.99594       	74.418304      	73.75511       	74.049644      	74.0329        	74.15277       	74.306244      	74.263466      	74.26113       	74.01342       	74.17173       	74.152954      	74.158775      	
74.28807       	74.11067       	74.26371       	74.197044      	74.03224       	74.107704      	74.11529       	74.126854      	74.1279        	74.24185       	74.09609       	74.089806      	74.155945      	74.0208        	74.04152       	74.26734       	74.02391       	74.11922       	74.28745       	74.17667       	74.25891       	73.91279       	74.16214       	74.277695      	74.03311       	74.18398       	74.1163        	74.06319       	74.13516       	74.260254      	74.050186      	73.930176      	74.05154       	74.20481       	74.21073       	74.27902       	74.154236      	74.200775      	74.06163       	74.11094       	74.33674       	74.14567       	74.13151       	74.07672       	74.37298       	74.09462       	74.13214       	74.03536       	73.92882       	74.30585       	74.371506      	74.01246       	74.00918       	74.16877       	74.15933       	74.14987       	74.30269       	74.32664       	74.23086       	74.27049       	74.138336      	74.21337       	74.39147       	73.836         	74.105125      	74.3144        	74.0899        	74.264885      	74.008804      	74.00904       	74.31251       	74.21377       	74.11319       	74.11192       	74.17713       	74.190636      	74.01981       	74.21465       	74.15301       	74.203285      	74.195496      	74.112076      	74.23049       	72.940125      	74.24156       	74.332146      	74.17321       	74.26728       	74.09337       	73.955666      	73.90485       	74.29434       	74.08735       	73.90062       	74.38403       	74.33822       	74.15851       	74.309784      	74.16214       	74.2089        	
74.183304      	74.20353       	74.26737       	74.004196      	74.01862       	74.15969       	74.22731       	74.094864      	73.95955       	74.06416       	74.32614       	74.10632       	74.183716      	74.08896       	74.04167       	74.22812       	74.17581       	74.20926       	74.05574       	74.07686       	74.155235      	74.08485       	74.15706       	74.2129        	74.088974      	74.14388       	74.2356        	73.96129       	74.14354       	74.14882       	74.02319       	74.247246      	74.15826       	74.13322       	73.99066       	74.20881       	74.34016       	74.24907       	74.00348       	74.07641       	74.29922       	74.19235       	74.2539        	73.991135      	74.361626      	74.019325      	74.04075       	74.10593       	74.05385       	74.25799       	74.16019       	74.15165       	74.10331       	74.21991       	74.19007       	74.12953       	74.12765       	74.287575      	74.20953       	74.24092       	74.261314      	74.08467       	74.21907       	74.264435      	74.055275      	74.064384      	74.344505      	74.09167       	74.14319       	74.25484       	74.16675       	74.02573       	74.173836      	74.166626      	74.21725       	74.253426      	74.03715       	74.30631       	74.03918       	74.143684      	74.3531        	74.08624       	73.998085      	74.17388       	74.00636       	74.286705      	74.06425       	74.364136      	74.07324       	73.96134       	74.08981       	74.1294        	74.16986       	74.170456      	74.06194       	74.46646       	74.191696      	74.212715      	74.0679        	74.2748        	
74.142136      	74.217545      	74.13548       	73.9234        	73.987114      	74.13716       	74.09678       	74.17038       	74.1874        	74.11765       	74.14672       	74.10614       	74.13269       	74.243286      	74.006935      	74.15333       	74.091415      	74.29594       	74.02252       	74.112885      	74.380165      	73.95212       	73.960205      	74.28717       	74.11535       	74.120094      	73.99538       	74.07916       	74.0701        	74.25909       	74.26136       	74.24308       	74.01303       	74.151665      	73.95614       	74.202736      	74.306404      	74.26866       	74.21387       	74.0104        	74.32685       	74.0618        	74.16539       	74.112206      	74.114426      	74.21536       	74.04991       	74.12817       	74.24794       	74.1497        	74.15916       	74.01626       	74.26238       	74.25301       	74.07354       	74.12762       	74.236984      	74.14839       	74.435616      	74.1465        	74.009094      	74.15298       	74.23563       	74.06401       	74.20598       	74.098175      	74.06752       	74.3005        	74.0544        	74.18077       	74.139084      	74.219864      	73.98571       	74.139015      	74.17024       	74.2142        	74.364586      	74.13496       	74.18665       	74.07258       	74.14367       	74.235916      	74.18561       	74.168655      	74.14846       	74.09425       	74.18542       	74.42559       	74.20948       	73.90692       	74.199455      	73.21787       	75.171005      	74.35915       	73.9734        	72.338684      	74.336         	73.80808       	72.93803       	75.10567       	
74.23853       	74.20497       	74.1023        	73.94797       	73.986725      	74.00033       	74.164246      	74.08209       	74.29174       	74.04296       	74.06212       	74.18997       	74.193726      	74.09714       	74.16916       	74.235344      	73.948135      	74.08731       	74.13705       	74.20832       	74.18032       	74.03472       	74.08557       	74.29318       	74.16821       	74.10819       	74.01463       	74.08579       	74.010925      	74.24967       	74.18211       	74.156166      	74.220726      	74.2644        	73.97775       	74.07668       	74.18385       	74.24545       	74.24019       	74.15532       	73.95736       	74.142         	73.99359       	74.26609       	74.24101       	73.984085      	74.24047       	74.20909       	74.174614      	74.10668       	74.29353       	74.12222       	73.56094       	74.67411       	74.31253       	73.21403       	73.78288       	74.832565      	74.6554        	74.076126      	74.14439       	74.239265      	74.08809       	74.15463       	74.05634       	74.26657       	74.01667       	74.34093       	74.280136      	74.0093        	74.19758       	74.15669       	74.170334      	74.227425      	74.03647       	74.116264      	74.197334      	74.181175      	74.13722       	74.13998       	74.19399       	74.15137       	74.04701       	74.15447       	74.10719       	74.17515       	74.164116      	74.10951       	74.33605       	67.48228       	74.971344      	72.98148       	74.99805       	75.323586      	71.57156       	73.58309       	74.45395       	74.05877       	73.65268       	74.41577       	
74.197136      	74.11543       	74.008255      	74.12724       	73.992645      	73.874954      	74.12723       	74.31796       	74.07516       	74.17522       	74.05229       	74.13615       	74.03773       	74.22164       	74.07692       	74.21792       	74.04027       	74.066086      	74.303024      	74.09356       	74.10242       	74.080894      	74.09023       	74.151474      	74.0732        	74.33353       	74.202225      	73.64953       	72.37952       	73.94412       	75.26871       	73.612564      	73.773125      	74.87318       	73.446945      	73.98626       	73.52933       	72.59          	71.50423       	74.69885       	71.1662        	73.81422       	73.965706      	73.064804      	74.99079       	73.588264      	72.79088       	71.52877       	75.1746        	72.67082       	72.66588       	74.288925      	72.473976      	73.999245      	74.79456       	71.833626      	74.11518       	74.46009       	78.1657        	76.79745       	73.69963       	73.96848       	74.044136      	74.05431       	74.19649       	74.247345      	74.03498       	74.14203       	74.14568       	74.05137       	74.187256      	74.296394      	74.0731        	74.107895      	74.1189        	74.12538       	74.23979       	74.21751       	74.09506       	74.12301       	74.28425       	74.072296      	74.11893       	74.27929       	74.109665      	74.213234      	74.12842       	74.0823        	74.1805        	66.156235      	74.05337       	74.237076      	74.19722       	74.21565       	74.188835      	74.069046      	74.32487       	74.12206       	74.30666       	74.147316      	
74.15117       	74.18298       	74.08689       	74.11614       	73.98374       	74.07502       	74.10427       	74.091324      	74.21324       	73.97756       	74.22453       	74.22871       	74.229324      	74.03728       	73.92557       	74.21431       	74.19656       	74.10307       	74.114         	74.20788       	74.14286       	74.20318       	74.012955      	74.130745      	74.267136      	74.07346       	74.04072       	63.738445      	73.82049       	74.09657       	73.43774       	74.081314      	74.27816       	73.84655       	73.7808        	73.88653       	73.842995      	74.24935       	73.94492       	74.20096       	73.90893       	73.98264       	74.198586      	74.155045      	74.21444       	74.00563       	74.323135      	73.96093       	74.15255       	74.33476       	74.09697       	74.278145      	74.151535      	74.28172       	74.1749        	74.10552       	73.95645       	74.254654      	77.934296      	78.737045      	73.42397       	73.92743       	74.12728       	74.08102       	73.97328       	74.26347       	74.19682       	74.07006       	74.11838       	74.04793       	74.35807       	74.214096      	74.00701       	74.03826       	74.19337       	74.29507       	74.079124      	73.99369       	74.213615      	74.17356       	74.25831       	74.0611        	74.12173       	74.33928       	74.04485       	74.08314       	74.235146      	74.19256       	74.12183       	66.45633       	73.42428       	74.0494        	74.20765       	74.14895       	74.18047       	74.33218       	74.189644      	74.06286       	74.13275       	74.176926      	
74.07375       	74.01648       	73.879425      	74.05397       	74.1319        	74.16421       	74.2159        	74.092285      	74.11066       	74.01831       	74.15918       	74.220535      	74.00366       	74.02338       	74.17496       	74.26298       	74.31633       	73.9586        	74.100945      	74.12813       	74.18457       	74.20129       	74.00352       	74.3343        	74.03571       	74.04953       	73.951805      	66.12513       	71.95695       	74.08078       	74.42066       	74.21403       	74.20259       	74.20178       	74.20848       	74.02042       	74.16991       	74.36041       	74.20493       	74.19474       	74.20521       	74.0844        	74.19722       	74.21634       	73.995224      	74.1656        	74.00229       	74.10481       	74.35454       	74.11307       	74.352684      	74.08572       	74.136734      	74.20051       	74.2708        	73.99087       	74.00452       	74.29437       	77.51414       	79.137955      	73.1749        	73.75889       	74.12422       	74.08466       	74.27231       	74.10296       	74.09068       	74.209236      	74.030594      	74.10802       	74.21924       	74.23735       	74.10541       	74.108376      	74.11424       	74.21289       	74.079796      	73.94626       	74.128334      	74.21015       	74.14586       	74.11516       	74.20921       	74.131065      	74.157776      	74.06781       	74.12714       	74.20759       	74.1304        	64.10688       	71.2612        	74.05673       	74.399254      	74.06413       	74.08333       	74.384254      	74.267525      	74.15493       	74.03614       	74.28437       	
74.20543       	74.13582       	74.072685      	74.02203       	73.99011       	74.13597       	73.94085       	74.27483       	74.11105       	74.18183       	74.08009       	74.05381       	74.225136      	74.30384       	73.98071       	74.10034       	74.276245      	74.06596       	74.069466      	74.201195      	74.05532       	74.30393       	74.06466       	74.12147       	74.09779       	74.11572       	74.15001       	69.23706       	69.44678       	74.28172       	74.212814      	74.20426       	74.1545        	74.26252       	74.11686       	74.15652       	74.31953       	74.023         	74.13766       	74.22525       	74.127815      	74.26708       	74.0821        	74.32998       	73.91732       	74.2433        	74.25316       	74.100784      	74.162285      	74.16184       	74.314186      	74.066765      	73.97965       	74.3476        	74.26639       	74.01595       	74.062065      	74.131516      	77.44082       	78.987206      	73.54581       	73.98974       	73.97445       	74.1089        	74.13427       	74.19322       	74.12918       	74.122475      	74.03038       	74.142784      	74.2441        	74.28889       	74.069336      	74.03263       	74.13693       	74.11592       	74.18856       	74.10396       	74.14514       	74.15225       	74.19793       	73.950935      	74.22048       	74.102684      	74.2732        	73.95473       	74.04998       	74.19631       	74.28329       	61.747402      	74.16062       	74.14637       	74.32932       	74.17116       	74.148834      	74.237915      	74.25108       	74.09981       	74.17885       	74.2325        	
74.20398       	74.15256       	74.11188       	74.077705      	73.86287       	74.08432       	74.0753        	73.96414       	74.26428       	74.20321       	74.07347       	74.18157       	74.166565      	74.20354       	73.87501       	74.13432       	74.267914      	74.07959       	74.236694      	74.09163       	74.22358       	74.06279       	73.97938       	74.19285       	74.22731       	74.21899       	73.9457        	71.186455      	66.85479       	74.14066       	74.33393       	74.177         	72.590836      	73.65123       	74.17452       	74.18323       	74.27445       	74.16624       	74.15076       	74.11913       	74.24911       	74.281425      	74.06762       	74.20541       	74.18583       	73.99243       	74.27439       	74.21341       	74.17527       	74.17426       	74.19012       	74.160225      	74.014336      	74.11486       	74.21012       	74.10313       	74.11745       	74.23812       	76.585594      	79.941         	73.072235      	73.91937       	74.189735      	74.00375       	74.024635      	74.13396       	74.047844      	74.299126      	74.01179       	74.13698       	74.24133       	73.98225       	74.2802        	74.0541        	74.215706      	74.09034       	74.11676       	74.11817       	74.341385      	74.055275      	74.11789       	74.22514       	74.15463       	74.177574      	74.149254      	74.13693       	74.19134       	74.2365        	74.07153       	63.028202      	73.03406       	71.59154       	74.91426       	74.25894       	74.227295      	74.22704       	73.96139       	74.18941       	74.305466      	74.05377       	
74.34116       	74.224045      	73.972404      	73.87796       	73.933235      	74.059265      	74.18748       	74.195564      	74.04965       	74.192894      	74.01224       	73.87364       	74.2924        	74.08585       	74.179504      	74.14262       	74.21533       	74.21469       	74.06563       	74.152534      	74.04389       	74.085075      	74.139755      	74.16928       	74.097244      	74.10651       	74.03542       	68.52481       	73.108665      	73.95868       	74.27899       	74.283875      	74.17335       	74.26156       	74.110725      	74.03037       	74.173134      	74.25149       	74.28357       	74.06846       	73.97739       	74.197624      	74.2109        	74.4053        	74.130974      	74.05936       	74.202         	74.142136      	74.316666      	74.115944      	74.072136      	74.09498       	74.119545      	74.13078       	74.27289       	74.17877       	74.08321       	74.126656      	76.91684       	79.89428       	73.173615      	73.90468       	74.09846       	74.12925       	74.09289       	74.13776       	74.15875       	74.11452       	74.14437       	74.14602       	74.19437       	74.22106       	74.1329        	74.05511       	74.21086       	74.183624      	74.01128       	74.06703       	74.33194       	74.18206       	74.08571       	74.023254      	74.190125      	74.110344      	74.094734      	74.30779       	74.21482       	74.18074       	74.13017       	69.37556       	73.093666      	73.969894      	74.331894      	74.29869       	74.36492       	74.0738        	74.15251       	74.179596      	74.09728       	74.34179       	
74.31881       	74.255806      	74.09722       	73.97356       	73.97161       	73.96582       	74.188095      	74.125534      	74.19677       	74.04251       	74.11655       	74.16148       	74.12052       	74.06006       	74.19678       	74.103355      	74.1536        	74.20347       	74.18687       	73.90521       	74.098         	74.31104       	74.08144       	73.961         	74.131454      	74.254295      	74.065865      	67.79829       	73.64361       	73.93554       	74.311134      	74.29363       	74.166145      	74.08922       	74.25388       	74.07711       	74.25851       	74.109604      	74.26702       	73.99065       	74.20519       	74.245445      	74.23531       	74.106476      	74.18907       	74.154106      	74.1594        	74.21044       	74.06684       	74.27477       	74.18509       	74.00656       	74.31159       	74.13357       	74.095116      	74.04514       	74.32383       	74.19287       	76.68002       	80.35373       	73.46122       	74.06982       	74.08222       	74.13621       	74.17003       	73.99269       	74.18479       	74.14826       	73.99484       	74.18027       	74.22062       	74.143005      	74.23517       	74.07095       	74.125084      	74.256226      	74.205864      	74.175316      	74.18527       	74.0289        	74.238235      	74.012955      	74.166245      	74.21768       	74.01326       	74.24925       	74.151         	74.15901       	74.04004       	63.43123       	73.21697       	74.13164       	74.22899       	74.30269       	74.12536       	74.140434      	74.282974      	74.23434       	74.17775       	74.23348       	
74.11891       	74.35384       	73.947426      	73.787384      	74.16118       	74.10532       	74.09185       	74.00932       	74.135284      	74.18597       	74.06253       	74.136055      	74.1581        	74.16084       	74.12915       	74.12861       	74.15398       	74.20544       	74.174355      	74.123375      	74.13638       	73.96716       	74.19591       	74.13893       	73.99331       	74.23576       	74.193726      	66.59709       	68.96255       	74.03225       	74.468414      	74.13286       	74.21401       	74.20169       	74.14373       	74.19923       	74.27028       	74.139565      	74.166626      	74.18982       	74.097534      	74.16218       	74.272446      	74.11671       	74.10219       	74.180756      	74.02507       	74.30702       	74.127106      	74.09662       	74.155495      	74.18765       	74.02271       	74.25988       	74.24409       	74.12323       	74.02747       	74.346756      	76.55659       	79.53986       	73.86516       	73.74072       	74.12971       	74.16158       	74.05325       	74.2284        	73.993385      	74.13492       	74.265976      	74.11822       	74.128624      	74.10661       	74.157776      	74.201645      	73.95984       	74.32464       	74.08493       	74.09225       	74.07181       	74.13513       	74.24715       	74.17379       	74.12713       	74.222984      	74.116905      	74.164734      	74.150696      	74.21228       	73.606155      	63.48655       	71.83938       	74.24822       	74.15578       	74.16974       	74.24325       	74.07351       	74.23176       	74.23526       	74.19875       	74.11026       	
74.3128        	74.21259       	73.94992       	73.99895       	74.01354       	74.04367       	74.09215       	74.22961       	73.993645      	74.22143       	74.07629       	74.179436      	74.22147       	74.11502       	74.04393       	74.17855       	74.07745       	74.16617       	74.20996       	73.997505      	74.16001       	74.127045      	74.140594      	74.06888       	74.19424       	74.034004      	74.2138        	67.53707       	73.166985      	73.79264       	74.24355       	74.404434      	74.007515      	74.163994      	74.13741       	74.163315      	74.23818       	74.18624       	74.14917       	74.15541       	74.15149       	74.229614      	74.17632       	74.05443       	74.17647       	74.21472       	74.03639       	74.29109       	74.22189       	74.21112       	73.991486      	74.1932        	74.18081       	74.239265      	74.11224       	74.15248       	74.04992       	74.08149       	76.610825      	80.05848       	73.35311       	73.8689        	74.16533       	74.11135       	74.249146      	74.097145      	74.07355       	74.17711       	74.10963       	74.0706        	74.131294      	74.08967       	74.28731       	74.03041       	74.153076      	74.111115      	74.21561       	74.24061       	74.13824       	73.999954      	74.233635      	74.246796      	74.070755      	74.10796       	74.116516      	74.21013       	74.20393       	74.09031       	73.938446      	62.56419       	73.62045       	74.13767       	74.35972       	74.15961       	74.19839       	74.15188       	74.21502       	74.16945       	74.15258       	74.09535       	
74.332146      	74.05888       	74.142914      	74.146194      	74.159225      	74.054886      	74.0853        	74.18283       	74.20791       	73.95037       	74.178986      	74.15111       	74.11609       	74.17503       	74.00074       	74.31711       	74.19595       	74.10903       	74.11664       	74.09346       	74.200356      	73.92637       	74.08638       	74.303604      	74.12622       	74.21801       	74.078         	69.17516       	68.89587       	74.18276       	74.20287       	74.272644      	74.25066       	73.99609       	74.23394       	74.19761       	74.1822        	74.10364       	74.16961       	74.20864       	74.19548       	74.06848       	74.26026       	74.20053       	74.09937       	74.19241       	73.98063       	74.3382        	74.103134      	74.18218       	74.13416       	74.19839       	74.27579       	74.08991       	74.123344      	74.06177       	74.19311       	74.215164      	76.284225      	80.282745      	73.67234       	73.96259       	74.10137       	74.01845       	74.10897       	74.14581       	74.22019       	74.12991       	74.201035      	74.040215      	74.10682       	74.16975       	74.11061       	74.175125      	74.22149       	74.03626       	74.18323       	74.24661       	74.04248       	74.29987       	74.129715      	73.9764        	74.10065       	74.35388       	74.10205       	74.228584      	74.161         	74.173454      	74.15064       	69.1741        	72.83606       	74.126595      	74.20071       	74.221924      	74.2807        	74.20284       	74.16216       	74.18792       	74.08664       	74.23461       	
74.19987       	74.16893       	74.03652       	73.99479       	74.129364      	74.08464       	74.057495      	74.13115       	74.12473       	74.174614      	74.06923       	74.10676       	74.20907       	74.11415       	74.040146      	74.20205       	74.0923        	74.24185       	74.01859       	74.166954      	74.14025       	74.0546        	73.99782       	74.24063       	74.20808       	74.143234      	74.04157       	70.24439       	67.84657       	74.17894       	74.30893       	74.071556      	74.11368       	74.28923       	74.18266       	74.27054       	74.17645       	74.02579       	74.18608       	74.30799       	74.1777        	73.99466       	74.125046      	74.186226      	74.20841       	74.18611       	74.11297       	74.24815       	74.1492        	74.112076      	74.23061       	74.33485       	74.19527       	73.89941       	74.215744      	74.07648       	74.2455        	74.20972       	76.62809       	79.77436       	73.7463        	73.84499       	74.11303       	74.11483       	73.971825      	74.20115       	74.21178       	74.21121       	74.11722       	74.04489       	74.18551       	74.17311       	74.09386       	74.09695       	74.133255      	74.18856       	74.16059       	74.093735      	74.28641       	74.09612       	74.15389       	74.12853       	74.19596       	74.28001       	74.03761       	74.15326       	74.16482       	74.14078       	74.21495       	66.14102       	73.82312       	74.213585      	74.27578       	74.159195      	74.22871       	74.003395      	74.30196       	74.24488       	74.22566       	74.09252       	
74.31281       	74.28925       	74.05703       	73.91303       	74.07895       	74.00321       	74.21952       	74.13968       	74.092896      	74.14476       	74.04686       	74.145485      	74.02881       	74.21107       	74.229836      	73.97681       	74.140495      	74.092155      	74.253204      	74.19882       	74.00727       	74.09886       	74.16235       	74.05443       	74.26995       	74.26141       	74.297615      	70.72514       	71.771095      	73.937386      	74.282234      	74.03563       	74.15934       	74.18716       	74.33624       	74.16245       	74.11017       	74.16599       	74.06449       	74.207275      	74.1358        	74.18596       	74.20775       	74.24065       	74.07629       	74.02221       	74.32004       	74.18482       	74.09455       	74.2209        	73.98827       	74.25547       	74.16756       	74.16136       	73.98784       	74.24374       	74.1325        	74.032745      	75.96071       	80.57534       	73.894806      	73.637024      	74.00316       	74.12793       	74.17714       	74.05306       	73.98666       	74.193504      	74.20554       	74.02799       	74.257965      	74.229225      	74.23801       	74.00113       	74.2258        	74.15377       	74.15018       	74.15584       	73.95414       	74.27071       	74.06303       	74.133064      	74.26208       	73.89366       	74.35176       	74.17784       	74.170074      	74.042755      	74.142296      	70.080696      	68.86744       	74.221695      	74.296776      	74.23259       	74.21279       	74.13804       	74.2945        	74.1996        	74.193886      	74.06152       	
74.16562       	74.24444       	74.041985      	73.83361       	73.9512        	74.1312        	74.06448       	74.14842       	73.99663       	74.294235      	74.07075       	74.03956       	74.09959       	74.2235        	74.26057       	74.19359       	74.096794      	74.006584      	74.078476      	74.26113       	74.15829       	74.09975       	73.97832       	74.108284      	74.300095      	74.15012       	73.944084      	70.61342       	72.19647       	73.58618       	74.43146       	74.104515      	74.27439       	74.220665      	74.24125       	74.14781       	74.2359        	74.09399       	74.14047       	74.213905      	74.034485      	74.21917       	74.028984      	74.2976        	74.14292       	74.16797       	73.99558       	74.18603       	74.30448       	74.18885       	74.15258       	74.2062        	74.013504      	74.140495      	74.373535      	74.15653       	74.288734      	73.974335      	76.16425       	80.4415        	73.78841       	74.01728       	74.00622       	74.151024      	74.11883       	74.155876      	73.97187       	74.245445      	74.122765      	74.05085       	74.233765      	74.01898       	74.35678       	73.98028       	74.25065       	74.09418       	73.95753       	74.28316       	74.21511       	74.27967       	74.00542       	74.27018       	74.06604       	73.97311       	74.20361       	74.19821       	74.267         	74.18688       	74.15981       	62.19307       	73.49226       	73.937004      	74.210655      	74.22647       	74.29533       	74.26958       	74.09621       	74.13896       	74.290665      	74.131645      	
74.211296      	74.19275       	74.24125       	74.02524       	74.10623       	74.07831       	74.05019       	73.99018       	74.20015       	74.19016       	74.138824      	73.99599       	74.219826      	74.180016      	74.019325      	74.204834      	74.18965       	74.22401       	74.03958       	74.11672       	74.04911       	74.00797       	74.3256        	74.253525      	74.12776       	74.08903       	74.139015      	70.04901       	72.817085      	73.83507       	74.35627       	74.23212       	74.25195       	74.08743       	74.290794      	73.97885       	74.215904      	74.22142       	74.23072       	74.100464      	74.14276       	74.269485      	74.09683       	74.26369       	74.11918       	74.099525      	74.34565       	74.16696       	73.84126       	74.24311       	74.322395      	74.007706      	74.09804       	74.25803       	74.20627       	74.20174       	73.99387       	74.17115       	75.95265       	80.545746      	73.65451       	73.91346       	73.990524      	74.17536       	74.077545      	74.05766       	74.20859       	74.15694       	74.08376       	74.17567       	73.90285       	74.169624      	74.387665      	74.1582        	74.05905       	74.24012       	74.03023       	73.95104       	74.2397        	74.22191       	74.08543       	74.00263       	74.30695       	74.14688       	74.23544       	74.14961       	74.05329       	74.12916       	74.23994       	67.2071        	73.99633       	74.14829       	74.134636      	74.25339       	74.24098       	74.11099       	74.235794      	74.08927       	74.184975      	74.28146       	
74.19847       	74.12532       	74.00936       	73.989365      	74.25866       	74.16408       	74.08572       	74.12224       	74.04467       	74.19182       	74.21399       	74.0908        	74.13018       	74.05566       	74.14454       	74.20814       	74.0576        	74.10458       	74.06978       	74.178024      	74.19324       	74.15886       	74.07003       	74.20879       	74.08988       	74.177376      	74.170135      	71.70594       	70.917656      	73.56961       	74.51232       	74.22231       	74.21419       	74.13853       	74.219345      	74.21019       	74.09327       	74.19066       	74.05627       	74.17309       	74.32398       	74.09808       	74.24976       	74.093864      	74.14419       	74.30136       	74.00052       	74.21062       	74.10037       	74.054634      	74.22244       	74.187256      	74.01804       	74.29551       	74.20774       	74.15645       	74.09569       	74.077545      	75.647835      	80.17537       	73.98996       	74.082016      	74.14099       	73.95479       	74.0883        	74.07011       	74.12793       	74.25377       	74.03063       	74.239525      	74.16638       	74.11727       	74.266785      	74.04696       	74.22612       	74.06893       	74.14058       	74.12532       	74.07941       	74.32846       	74.04398       	74.10908       	74.23515       	74.14213       	74.155945      	74.35579       	73.97155       	74.122925      	74.26905       	67.570274      	73.260864      	74.03785       	74.31361       	74.05601       	74.28003       	74.148254      	74.23748       	74.093056      	74.21085       	74.02324       	
74.21735       	74.054344      	73.991325      	73.98904       	74.08219       	73.98641       	73.95417       	74.31554       	74.20594       	74.04635       	74.18951       	74.178604      	74.083046      	74.20082       	74.07337       	74.168304      	74.17723       	74.14178       	74.05064       	74.10882       	74.10357       	74.06015       	74.2769        	74.03773       	74.23595       	74.30715       	73.956         	72.5568        	71.39584       	73.58222       	74.25281       	74.34396       	74.15564       	74.189766      	74.12204       	74.20763       	74.23402       	74.193474      	74.029106      	74.132195      	74.17914       	74.25011       	74.209785      	74.1679        	74.01317       	74.24215       	74.12065       	74.251526      	74.08678       	74.188286      	74.031204      	74.26232       	74.21882       	74.23141       	74.20807       	73.02188       	74.084946      	74.107155      	75.14439       	80.17909       	74.99783       	73.60329       	74.197136      	74.13156       	74.15227       	73.982605      	74.20638       	74.142876      	74.20724       	74.06571       	74.23867       	74.180084      	73.99068       	74.21506       	74.165436      	74.175735      	74.0842        	74.100685      	74.007286      	74.15304       	74.1894        	74.02796       	74.14524       	74.10317       	74.169235      	74.25441       	74.0348        	74.293434      	74.231445      	71.62171       	65.44707       	74.08776       	74.320335      	74.263985      	74.12841       	74.11074       	74.240814      	74.14617       	74.23648       	74.24779       	
74.215706      	74.20893       	74.10375       	73.98834       	74.11266       	74.101685      	74.080536      	74.05491       	74.1243        	74.23058       	74.051155      	74.05919       	74.1902        	74.1496        	74.09528       	74.01526       	74.1316        	74.16649       	74.05871       	74.234505      	74.08297       	74.02625       	74.26788       	74.02614       	74.22718       	74.21793       	74.229256      	72.21735       	67.95728       	73.9774        	74.27478       	74.2059        	74.38029       	74.14836       	74.20575       	74.26884       	74.159355      	74.164955      	74.10965       	74.00605       	74.35858       	74.02881       	74.10403       	74.25275       	74.1786        	74.17527       	74.044426      	74.19063       	74.09109       	74.26396       	74.08573       	74.15823       	74.299545      	73.977425      	74.321236      	74.14795       	73.977875      	74.2227        	74.91443       	80.10306       	75.861725      	73.68753       	74.10486       	74.07984       	74.16219       	74.15149       	74.13372       	74.068924      	74.11465       	74.16179       	74.18324       	74.109566      	74.14541       	74.159485      	74.17818       	74.12922       	74.244255      	74.13337       	74.1648        	74.20756       	74.15218       	74.0445        	74.13089       	74.25048       	74.05199       	74.017784      	74.12888       	74.12914       	74.12306       	69.17544       	72.40911       	74.11804       	74.30117       	74.202934      	74.09201       	74.10433       	74.35129       	74.11698       	74.056915      	74.36217       	
74.141075      	74.14147       	74.25199       	74.20713       	73.949615      	73.882126      	74.31984       	74.054085      	74.16706       	74.05588       	74.14819       	74.16614       	74.120094      	74.2115        	74.09876       	74.15407       	73.98954       	74.2258        	74.27531       	73.99939       	74.048615      	74.153755      	74.04016       	74.23534       	74.219864      	74.14827       	74.10755       	70.69983       	69.75231       	74.06409       	74.18933       	74.228035      	74.09222       	74.10872       	74.21896       	74.33414       	74.03596       	74.14712       	74.27795       	74.14685       	74.17221       	74.136536      	74.25528       	74.11068       	74.04196       	74.26844       	74.222176      	74.10999       	74.13359       	74.20596       	74.211174      	74.08494       	74.275185      	74.07146       	74.21876       	74.135025      	74.07307       	74.27295       	75.26887       	80.02002       	75.415375      	73.77802       	74.167984      	73.996544      	74.18455       	74.086494      	74.14869       	74.01414       	74.269684      	74.22696       	74.10131       	74.03077       	74.12557       	74.2382        	74.24668       	74.03487       	74.15141       	74.25091       	74.13845       	74.09238       	74.10646       	74.24236       	74.13296       	74.131546      	74.25882       	74.0515        	74.25592       	73.9505        	74.24415       	67.90817       	72.48847       	73.93392       	74.34842       	74.164604      	74.23359       	74.04564       	74.31522       	74.21793       	74.02801       	74.201935      	
74.099236      	74.134094      	74.09404       	74.19727       	74.10921       	74.06661       	74.076996      	74.10428       	74.0661        	74.319824      	74.10519       	74.07007       	74.098         	74.14731       	74.23163       	74.04641       	74.2175        	74.13302       	74.044945      	74.27465       	74.009056      	74.188576      	74.07576       	74.10675       	74.21981       	74.17828       	74.05437       	72.20062       	65.998         	73.79986       	74.25178       	74.22361       	74.27045       	74.10983       	74.24122       	74.08545       	74.199356      	74.23276       	74.23548       	74.20151       	74.0377        	74.289825      	74.13474       	74.198654      	74.232124      	74.15798       	74.182556      	74.06663       	74.336044      	74.1406        	74.040085      	74.11161       	74.22298       	74.12668       	74.26751       	74.12529       	74.0652        	74.18742       	74.593285      	79.5193        	76.216606      	73.62216       	74.02264       	73.92589       	74.21079       	74.09041       	74.15002       	74.12313       	74.1059        	74.1465        	74.1164        	74.11067       	74.05742       	74.15853       	74.20534       	74.12482       	74.210365      	74.21191       	74.16301       	74.088295      	74.13825       	74.173294      	74.09877       	74.176186      	74.17735       	74.115585      	74.30602       	74.06503       	74.092575      	68.86484       	73.581825      	73.97605       	74.416115      	74.186806      	74.0489        	74.29821       	74.11743       	74.18087       	74.30396       	74.17396       	
74.33175       	74.13384       	73.90363       	73.66288       	73.531975      	73.98711       	74.140144      	74.00848       	74.15193       	74.10751       	74.233086      	73.99969       	74.100716      	74.08434       	74.13534       	74.08694       	74.09777       	74.148674      	74.267166      	74.017685      	74.16626       	74.05218       	74.07767       	74.26191       	73.98728       	74.17247       	74.14396       	68.53311       	71.11585       	73.93892       	74.29542       	74.15747       	74.31214       	74.05987       	74.26187       	74.222786      	73.91351       	74.35073       	74.10848       	74.062996      	74.24016       	74.00677       	74.41891       	74.15392       	74.14851       	74.21836       	74.106094      	74.05832       	74.08205       	74.10589       	74.22611       	74.17126       	74.20757       	74.05765       	74.16391       	74.28159       	74.090195      	74.30826       	74.83718       	79.69033       	75.230194      	73.68411       	74.00962       	74.228966      	74.118645      	74.085396      	74.26335       	74.13066       	74.05175       	74.25627       	74.07994       	74.11892       	74.16392       	74.132675      	74.09826       	74.14675       	74.16141       	74.115906      	74.29667       	74.11213       	74.194214      	74.119606      	74.07818       	74.23721       	74.21823       	74.12394       	74.1622        	74.06244       	74.08312       	69.712555      	71.52842       	74.0762        	74.39492       	74.11799       	74.09426       	74.16279       	74.285965      	74.23726       	74.06636       	74.281815      	
74.22152       	74.45068       	74.124985      	73.883316      	74.002335      	74.17133       	73.97346       	74.1072        	74.14069       	74.25515       	74.044         	74.13892       	74.09565       	73.969666      	74.338104      	74.130455      	73.95315       	74.27862       	74.25677       	73.98058       	74.17065       	74.12985       	74.21286       	74.05064       	73.75118       	74.46268       	74.070694      	71.06221       	70.78234       	73.82649       	74.21759       	74.297615      	74.17601       	74.23949       	74.23524       	74.00371       	74.23036       	74.169235      	74.08422       	74.14801       	74.003784      	74.26264       	74.144226      	74.287674      	74.14155       	74.065796      	74.25749       	74.15447       	74.16455       	74.27334       	74.17301       	73.975395      	74.268555      	74.225945      	74.12408       	74.150314      	74.123474      	74.16557       	74.57755       	78.964836      	76.964584      	73.4084        	74.09354       	74.1348        	74.12768       	74.02915       	74.22613       	74.14816       	74.186295      	74.1882        	73.94367       	74.10233       	74.23966       	74.17421       	74.106895      	74.07218       	74.220215      	74.12633       	74.19022       	73.99298       	74.41984       	74.00377       	74.180824      	74.11949       	74.29297       	74.21886       	74.22206       	73.89933       	74.238205      	68.006874      	73.39411       	73.82419       	74.458755      	74.237434      	74.16564       	74.2453        	74.11939       	74.21493       	74.15097       	74.21592       	
74.11475       	74.136055      	74.133736      	73.982315      	74.103264      	73.99216       	74.067215      	74.0349        	74.30324       	74.025505      	74.259476      	73.99736       	73.972755      	74.27004       	74.24876       	74.10489       	74.18478       	74.01936       	74.17316       	74.18353       	74.26574       	74.02733       	74.05587       	74.15193       	74.003494      	74.23698       	74.28605       	70.65785       	68.67537       	73.764854      	74.20404       	74.28329       	74.320984      	74.1371        	74.21023       	74.22167       	74.11444       	74.252426      	74.14292       	74.0494        	74.14238       	74.18664       	74.203125      	74.143394      	74.34819       	73.97851       	74.22525       	74.12783       	74.11122       	74.10689       	74.346535      	73.940506      	74.29286       	74.25906       	74.15823       	74.0582        	74.089905      	74.193596      	75.6145        	79.95161       	74.94796       	73.82955       	74.071976      	74.196785      	74.14167       	74.1765        	74.02338       	74.1331        	74.16424       	74.05882       	74.30065       	74.0643        	74.13611       	74.14576       	74.207375      	74.0948        	74.05808       	74.259895      	74.145355      	74.15391       	74.03822       	74.27417       	74.254295      	74.13373       	74.25389       	74.092445      	74.12368       	74.18366       	74.301476      	67.18334       	72.94775       	73.94865       	74.35885       	74.221924      	74.16442       	74.02891       	74.26697       	74.289276      	74.18936       	74.16744       	
74.14356       	74.09823       	74.17669       	74.089         	73.99872       	74.128654      	74.077866      	74.0946        	74.1376        	74.1133        	74.042404      	74.158844      	74.14468       	74.16249       	74.24483       	74.15333       	74.037994      	74.08091       	74.25081       	74.168625      	74.07743       	74.167145      	74.062         	74.050514      	74.150085      	74.27034       	74.16387       	72.09062       	66.2886        	73.929825      	74.41308       	74.23753       	74.055435      	74.26432       	74.11669       	74.22979       	74.18507       	74.222145      	74.11756       	73.98894       	74.28408       	74.23954       	74.02657       	74.08983       	74.36531       	73.933556      	74.34128       	74.31526       	74.13793       	74.077156      	74.079346      	74.22454       	74.09357       	74.127884      	74.21769       	74.180984      	74.17269       	74.22657       	74.46724       	78.752174      	76.83229       	73.59998       	74.11865       	74.075066      	73.88588       	74.15775       	74.26523       	74.07269       	74.13295       	74.03155       	74.10725       	74.14477       	74.152596      	74.11579       	74.167725      	74.2434        	74.13131       	74.23501       	74.08009       	74.30321       	74.17885       	74.023735      	74.20882       	74.17826       	74.119484      	74.17203       	74.12896       	74.197365      	74.20209       	68.119064      	73.47628       	73.67866       	74.30539       	74.26462       	74.05062       	74.12258       	74.239784      	74.22961       	74.16705       	74.18731       	
74.06312       	74.38918       	74.4002        	74.065506      	74.025925      	74.17362       	73.93721       	74.07112       	74.34097       	74.1953        	73.99013       	74.04628       	73.99057       	74.33093       	74.13072       	74.2412        	73.90049       	74.21089       	74.14282       	74.07395       	74.27907       	73.96294       	74.18206       	74.0275        	74.362686      	74.21596       	74.11773       	70.099075      	72.29416       	73.59711       	74.161644      	74.175316      	74.09056       	74.3746        	74.21492       	74.20712       	74.2979        	74.02072       	74.23994       	74.15039       	74.150276      	74.155235      	74.09286       	74.13325       	74.08544       	74.38001       	74.080185      	74.27017       	74.20485       	74.05554       	74.186615      	74.12556       	74.16093       	74.16989       	74.31685       	74.09318       	74.15882       	74.1588        	74.85911       	80.22465       	74.19302       	73.79548       	74.26159       	74.13492       	73.95733       	74.27613       	74.22686       	74.19619       	73.9488        	74.16074       	74.20205       	74.1208        	74.07782       	74.201675      	74.247986      	74.133835      	74.039345      	74.31292       	74.05517       	74.07189       	74.214455      	74.042244      	74.19582       	74.18605       	74.18695       	74.10016       	74.08651       	74.32966       	74.04536       	69.23129       	70.04583       	73.82846       	74.313515      	74.11816       	74.29625       	74.21169       	74.13536       	74.20906       	74.18108       	74.23235       	
74.257805      	74.3178        	74.18103       	73.91002       	74.0212        	74.066475      	74.04126       	74.29244       	74.13295       	74.06282       	74.15212       	74.182106      	74.16618       	74.1093        	74.19145       	74.04847       	74.01452       	74.16428       	74.2533        	74.01408       	74.18198       	74.14241       	74.07774       	74.21482       	73.931915      	74.32477       	74.22158       	72.859726      	67.46125       	73.81256       	74.398445      	74.17563       	74.094894      	74.15714       	74.39999       	74.134674      	74.2725        	74.17499       	74.00122       	74.18597       	74.08688       	74.25406       	74.30233       	74.10861       	73.93542       	74.17032       	74.29622       	74.226036      	74.09902       	74.042         	74.19479       	74.184494      	74.18502       	74.230576      	74.24176       	73.98058       	74.26258       	74.07939       	75.048775      	80.31073       	74.9815        	73.695755      	74.09979       	74.04006       	74.12875       	74.12811       	74.15966       	74.1569        	74.19502       	74.07196       	74.19128       	74.168594      	74.06645       	74.18715       	74.19126       	74.15072       	74.145134      	74.08538       	74.16762       	74.26978       	74.05403       	74.285706      	73.9628        	74.224724      	74.27593       	74.086876      	74.12212       	74.309715      	74.02445       	69.68486       	72.960884      	73.91282       	74.13048       	74.23525       	74.2165        	74.20712       	74.130066      	74.245415      	74.18238       	74.223236      	
74.13951       	74.1198        	74.21152       	74.13912       	74.205444      	74.051735      	74.02421       	74.15132       	74.20473       	73.950676      	74.11813       	74.16675       	74.118935      	74.17018       	74.10814       	74.25493       	74.12587       	73.951294      	74.20316       	74.24487       	73.96311       	74.094055      	73.94938       	74.19477       	74.25676       	74.060005      	74.3129        	69.226715      	68.2777        	73.8885        	74.30541       	74.36165       	74.01262       	74.157196      	74.32618       	74.221436      	74.20984       	73.328735      	74.06383       	74.151505      	74.20952       	74.27052       	74.12506       	74.144646      	74.087265      	74.29317       	74.17339       	74.23786       	74.02157       	74.09773       	74.27541       	74.0157        	74.26056       	74.26574       	74.091515      	74.119194      	74.04826       	74.26622       	74.488106      	79.155846      	76.08184       	73.775764      	74.13627       	73.91564       	74.01469       	74.18365       	74.21185       	74.317535      	74.067505      	74.02761       	74.20291       	74.25025       	74.05309       	74.02205       	74.19354       	74.14352       	74.217186      	74.27075       	74.11027       	74.08154       	74.06071       	74.31444       	74.10302       	74.2502        	74.02887       	74.052055      	74.3603        	74.204575      	74.04822       	73.660934      	62.67662       	73.162384      	74.25943       	74.13467       	74.36396       	74.31429       	74.10718       	74.100655      	74.17294       	74.18592       	
74.14929       	74.19919       	74.1724        	73.89513       	73.972176      	74.17449       	73.874794      	74.23807       	74.28174       	74.22512       	73.92161       	74.08622       	74.21142       	74.064835      	74.096245      	74.16041       	74.25299       	74.00916       	74.08803       	74.149376      	73.982445      	74.28404       	74.09551       	74.07808       	74.01407       	74.18882       	74.28964       	70.90965       	72.82253       	73.740715      	74.18237       	74.23952       	74.19127       	74.14814       	74.163124      	74.293945      	74.10969       	74.17788       	74.238846      	74.18407       	74.03555       	74.20762       	74.080345      	74.28093       	74.2243        	73.49585       	74.19025       	74.197395      	74.2565        	74.069855      	74.143234      	73.99742       	74.16021       	74.09183       	74.25764       	74.30012       	74.10735       	74.17391       	74.48678       	80.02965       	75.871254      	73.74015       	74.070694      	74.05243       	74.15662       	74.19359       	74.240585      	74.210526      	74.029076      	74.10049       	74.11706       	74.31929       	74.11193       	74.08764       	74.26556       	74.09317       	74.21539       	74.186554      	74.09071       	74.15033       	74.11362       	74.19144       	74.148384      	74.1636        	74.14884       	74.079994      	74.206184      	74.186905      	74.164536      	73.403366      	68.09618       	73.96927       	74.1606        	74.27277       	74.239685      	74.14353       	74.3021        	73.97967       	74.12943       	74.11787       	
74.29049       	74.279854      	73.947914      	74.01517       	74.151215      	74.0496        	74.226974      	74.065414      	74.14732       	74.15839       	74.1782        	74.09415       	74.04509       	74.1215        	74.20893       	74.0475        	74.027756      	74.21268       	74.14816       	74.14283       	74.03641       	74.10757       	74.267624      	74.19775       	73.92704       	74.37073       	74.15481       	72.49924       	68.66971       	73.70679       	74.12792       	74.18416       	74.32168       	74.2086        	74.095085      	74.07711       	74.10226       	74.30298       	74.26586       	74.14656       	74.116234      	74.22209       	74.1202        	74.14198       	74.24483       	74.09818       	74.11476       	74.244385      	74.19771       	74.20899       	74.115685      	74.14859       	74.1138        	74.10208       	74.18166       	74.12667       	74.32348       	74.15529       	74.22708       	79.04371       	77.03135       	73.46998       	73.987305      	74.09407       	74.0939        	74.10195       	74.209114      	74.206535      	74.06828       	74.11436       	74.17809       	74.29451       	74.0391        	74.09004       	74.301346      	74.15716       	73.99772       	74.130196      	74.20287       	74.238304      	74.22271       	73.96848       	74.212105      	74.19831       	74.2156        	74.1529        	74.09242       	73.93529       	74.26554       	72.85034       	72.23148       	73.70167       	74.15019       	74.34106       	74.40758       	74.11529       	73.93529       	74.2922        	74.168945      	74.25834       	
74.27141       	74.27794       	74.06977       	74.08428       	74.107765      	73.960945      	74.2439        	74.03862       	73.93138       	74.04481       	74.2714        	74.15306       	74.11511       	74.106964      	74.03216       	74.27102       	74.16424       	74.02651       	74.24828       	74.090294      	74.185684      	74.16871       	74.10303       	74.14606       	73.92808       	74.12057       	74.351         	69.939735      	71.87722       	73.81126       	74.17011       	74.19984       	74.138985      	74.22259       	74.17735       	74.20774       	74.14377       	74.114235      	74.30319       	73.99719       	74.21747       	74.168945      	74.38274       	73.93864       	74.136665      	74.11109       	74.32363       	74.17615       	74.1171        	74.26394       	73.99933       	74.13876       	74.119965      	74.22529       	74.120964      	74.23987       	74.164604      	73.98927       	74.34333       	78.29396       	78.592735      	73.515175      	74.02071       	74.17295       	74.00626       	74.21702       	74.18621       	74.18723       	74.11665       	74.10232       	74.210434      	74.130455      	74.06996       	74.08028       	74.264854      	74.02915       	74.06818       	74.206924      	74.15747       	74.24557       	74.18462       	74.11204       	74.144264      	74.06076       	74.20311       	74.090805      	74.19101       	74.10825       	74.105774      	70.49213       	71.36421       	73.71046       	74.222336      	74.184494      	74.34117       	74.29621       	73.94891       	74.16717       	74.36274       	74.13194       	
74.13474       	74.15653       	74.02959       	74.00633       	73.898834      	73.93142       	74.18833       	74.156975      	74.12334       	74.04891       	74.1877        	74.19          	74.09962       	74.12986       	74.17281       	74.235954      	74.1156        	74.02312       	74.156685      	74.12249       	74.15946       	74.12245       	74.14857       	74.13369       	74.123856      	74.12788       	74.16873       	73.24186       	70.02097       	73.47827       	74.199875      	74.340546      	74.17908       	74.23236       	74.17911       	74.13117       	74.21671       	73.96746       	74.37826       	73.98041       	74.25039       	74.15891       	74.07242       	74.2744        	74.0972        	74.19142       	74.20573       	74.26271       	74.1295        	74.04305       	74.07792       	74.07093       	74.360794      	74.05834       	74.178986      	74.153946      	74.104836      	74.21409       	74.311066      	79.07558       	77.355156      	73.61274       	73.84607       	74.026726      	74.05619       	74.27328       	74.18081       	74.09101       	74.01846       	74.13583       	74.19158       	74.236435      	74.09902       	74.226616      	74.05364       	74.243004      	74.15239       	74.2819        	74.14168       	74.06819       	74.09989       	74.1177        	74.20985       	74.2779        	74.035         	74.15593       	74.16101       	74.24618       	74.112656      	72.23815       	67.426895      	74.09741       	74.25261       	74.238594      	74.24231       	74.12978       	73.19898       	73.246704      	74.68653       	75.04248       	
74.21358       	74.175735      	74.06476       	73.989426      	74.11414       	74.1507        	73.99113       	74.063126      	74.11982       	74.04231       	74.139595      	74.18562       	74.10532       	74.13401       	74.19546       	74.10085       	74.11861       	74.19517       	74.1279        	74.12499       	74.20715       	74.07469       	74.118454      	74.19394       	74.08285       	74.10315       	74.25811       	73.87858       	62.251194      	73.98474       	74.070816      	74.31247       	74.2554        	74.108376      	74.249466      	74.153305      	74.11608       	74.256805      	74.15258       	74.16573       	74.153824      	74.215744      	74.065796      	74.18062       	74.15175       	74.28064       	74.13807       	74.113594      	74.17972       	74.19151       	74.21133       	74.07591       	74.21453       	74.13834       	74.31028       	74.10543       	74.2236        	74.19682       	74.11839       	78.06681       	78.18859       	73.550446      	73.971634      	74.02181       	74.01692       	74.40526       	74.14333       	74.014145      	74.08871       	74.07516       	74.35159       	74.149254      	74.18824       	74.12208       	74.14917       	74.11207       	74.08345       	74.29841       	74.012115      	74.19556       	74.132935      	74.33896       	74.25558       	74.08482       	74.176155      	74.05425       	74.156166      	74.25233       	74.04873       	73.8195        	68.1273        	73.77033       	74.359985      	74.81761       	72.68913       	71.29322       	70.69039       	72.02302       	75.03913       	76.87722       	
74.15671       	74.20106       	74.08048       	73.905         	73.82934       	74.09093       	74.245155      	74.007034      	74.25032       	74.20858       	73.95907       	74.1835        	74.15494       	74.139275      	74.1479        	74.16409       	74.03438       	74.17227       	74.10447       	74.18204       	74.21965       	73.997055      	74.177765      	74.15566       	74.097305      	74.19768       	74.09414       	74.04682       	62.428444      	73.98736       	74.19474       	74.298454      	74.31412       	73.56817       	74.17242       	73.82478       	73.96835       	73.499985      	73.782875      	74.29103       	74.76265       	73.30669       	74.02082       	74.26944       	74.537384      	73.30042       	74.00688       	74.783         	73.57621       	74.04327       	73.965126      	74.81336       	74.0888        	74.84639       	73.91979       	73.62859       	74.39863       	74.25205       	72.73922       	78.66336       	74.47266       	73.76357       	74.066055      	74.04956       	74.041         	74.58277       	73.928116      	74.01131       	74.23539       	74.12359       	74.12945       	74.13159       	74.147606      	74.10123       	74.304405      	74.18731       	74.20599       	74.05696       	74.03918       	74.0637        	74.246506      	74.3628        	74.01241       	73.947136      	74.130226      	74.43261       	74.19236       	74.01454       	74.17462       	74.21463       	74.02479       	73.992256      	74.20428       	74.0713        	71.784645      	68.38882       	69.88336       	72.66518       	75.04536       	77.38048       	
74.25165       	74.352425      	74.03019       	73.79499       	74.04787       	74.01902       	74.12305       	73.93743       	74.2664        	74.23028       	74.06443       	74.14018       	74.0508        	74.068825      	74.17336       	74.21543       	74.1309        	74.10315       	74.156044      	74.09767       	74.20461       	74.21514       	74.02673       	74.017365      	74.19409       	74.28243       	74.15534       	74.265366      	74.01795       	72.822845      	70.48148       	74.62517       	74.91738       	74.042175      	74.06085       	72.762115      	74.65994       	74.454475      	70.73453       	74.65043       	75.07425       	74.049904      	73.609825      	74.319595      	74.24124       	74.02752       	74.07913       	74.44079       	73.91187       	73.80046       	74.594315      	74.30139       	74.26091       	74.069466      	74.26179       	74.213715      	74.05676       	74.0515        	74.30354       	74.19489       	74.26847       	74.19198       	74.13782       	74.090614      	73.83517       	74.39534       	74.17634       	74.14259       	74.13339       	74.23592       	74.185036      	74.10955       	74.1195        	74.20495       	74.26609       	74.15186       	74.07408       	74.11206       	74.2517        	73.999306      	74.11602       	74.32534       	74.31774       	74.068344      	74.072044      	74.29468       	74.07332       	74.16204       	74.27137       	74.1614        	73.931656      	74.0945        	74.11873       	74.307175      	74.01862       	73.64596       	69.97689       	72.39443       	75.051765      	78.09227       	
74.28025       	74.200874      	74.10346       	74.05001       	74.2147        	74.12139       	74.14209       	74.183044      	74.06871       	74.14831       	73.98962       	74.24492       	74.01292       	74.15753       	74.235374      	74.085304      	74.194664      	74.30065       	73.80464       	74.31077       	74.25031       	74.11308       	73.94724       	74.24304       	74.08573       	74.270454      	74.13611       	74.11428       	74.215965      	73.96597       	74.37267       	74.10529       	74.16994       	74.194756      	74.100655      	74.18019       	74.058266      	74.211235      	74.16186       	74.26703       	74.08703       	73.96735       	74.106094      	74.01257       	74.12101       	74.186485      	74.20814       	74.17531       	74.22851       	73.99341       	74.19559       	74.302376      	73.990425      	74.29974       	74.23444       	74.20629       	74.13761       	74.05132       	74.33957       	74.16267       	74.26459       	74.18426       	74.11908       	74.207245      	73.96848       	74.20441       	74.237564      	74.340004      	74.098816      	73.911095      	74.27274       	74.26641       	74.28988       	74.065926      	74.22687       	74.247475      	74.0355        	74.05256       	74.153984      	74.13011       	74.19422       	73.998245      	74.215324      	74.29187       	74.146034      	74.22314       	74.11          	74.04679       	74.31637       	74.19857       	73.845795      	74.05252       	74.20773       	74.359314      	74.1837        	74.22685       	74.069084      	74.16467       	73.96821       	74.200096      	
74.225975      	74.18091       	74.14072       	74.158264      	74.044525      	74.17918       	74.140465      	74.06661       	74.162636      	74.00276       	74.29454       	74.15307       	74.185486      	73.88723       	74.067894      	74.208374      	74.17466       	74.147446      	74.10388       	74.21782       	74.04061       	74.17298       	74.18725       	74.15665       	74.181595      	74.12097       	74.32525       	73.96204       	74.15153       	74.00473       	74.36167       	74.13308       	73.99708       	74.229614      	74.2368        	74.17931       	74.11157       	73.97844       	74.309074      	74.302765      	73.94586       	74.065926      	74.02471       	74.33642       	74.14842       	74.26872       	74.07558       	74.26039       	73.987274      	73.91768       	74.27647       	74.09276       	74.236984      	74.27786       	74.07543       	74.12301       	74.153206      	74.22357       	74.32125       	74.252495      	74.16666       	74.08924       	74.24238       	74.17942       	74.04692       	74.05627       	74.33454       	74.40218       	74.02432       	74.11987       	74.244675      	74.11848       	74.289154      	74.074486      	74.13421       	74.12184       	74.24207       	74.19925       	74.02774       	74.181526      	74.32911       	74.09251       	74.154495      	74.03567       	74.24236       	74.083595      	74.23001       	74.05818       	74.16147       	74.1929        	73.91426       	74.03838       	74.22303       	74.38401       	74.32861       	74.01698       	74.1462        	74.14558       	74.09064       	74.26893       	
74.28056       	74.20928       	74.07512       	74.07017       	73.97756       	73.97824       	74.22431       	74.21479       	74.225296      	73.95705       	74.11031       	74.17359       	74.10914       	74.229294      	73.999344      	74.1051        	74.17842       	74.304         	74.1016        	74.023605      	74.14284       	74.27077       	74.25608       	74.00577       	74.05716       	74.21274       	74.04043       	74.17678       	74.106384      	74.08652       	74.23722       	74.208565      	73.99218       	74.19417       	74.10064       	74.141556      	74.111855      	74.04937       	74.18128       	74.23443       	74.14471       	74.07358       	74.374214      	74.238884      	74.0989        	74.122         	74.21083       	74.08582       	74.158485      	73.90582       	74.14304       	74.26869       	74.09573       	74.2069        	74.20652       	74.19878       	74.23814       	74.03528       	74.21631       	74.403755      	74.26602       	74.05923       	74.187485      	74.18408       	74.02498       	74.21453       	74.21378       	74.13277       	74.18265       	74.13949       	74.3496        	74.136826      	74.071594      	74.181305      	74.03663       	74.10698       	74.25638       	74.15924       	74.13621       	74.21252       	74.08788       	74.14009       	74.13904       	74.07657       	74.27971       	74.297104      	74.08657       	74.204346      	74.15961       	73.971794      	74.072815      	73.990944      	74.05587       	74.43152       	74.13949       	74.13602       	74.33023       	74.03339       	74.152985      	74.17836       	
74.068825      	74.23379       	74.17157       	73.97084       	74.120636      	74.175064      	74.10855       	74.19669       	74.112335      	74.0916        	74.100845      	74.09625       	74.18559       	74.121735      	74.31062       	73.917496      	73.97422       	74.42905       	74.02851       	74.19835       	74.07238       	74.07719       	74.24988       	73.982056      	74.29809       	74.192795      	73.93599       	74.22181       	74.17821       	73.93024       	74.23302       	74.0295        	74.3545        	74.082146      	74.16405       	74.27906       	74.14861       	73.71195       	74.2376        	74.2325        	74.217766      	74.235245      	74.168655      	74.259834      	74.10789       	74.09964       	74.16776       	74.11857       	74.10514       	74.179344      	74.116554      	74.15504       	74.289185      	74.04041       	74.084465      	74.257355      	74.21119       	74.20885       	74.017456      	74.14472       	74.27277       	74.36475       	74.041         	74.159966      	74.21287       	74.1565        	74.18693       	74.250824      	74.09466       	74.09436       	74.243095      	74.12715       	73.97824       	74.08063       	74.14167       	74.2952        	74.2015        	74.08118       	74.17247       	74.083115      	74.05351       	74.27622       	73.991615      	74.070625      	74.349976      	74.15931       	74.22435       	74.14471       	74.14858       	74.03632       	74.00545       	74.03419       	74.092834      	74.412346      	74.13066       	74.14097       	74.284004      	74.248665      	74.09383       	74.14346       	
74.105316      	74.14293       	74.095375      	74.11845       	73.9623        	73.990234      	74.259346      	74.24896       	73.99248       	74.09402       	74.048035      	74.1611        	74.202156      	74.11883       	74.11768       	74.21743       	74.15303       	74.00373       	74.155525      	74.06568       	74.12804       	74.20488       	73.90248       	74.21908       	74.145256      	74.22518       	74.157         	74.100204      	73.85946       	74.000694      	74.36134       	74.27946       	74.18008       	74.09313       	74.2089        	74.18402       	74.106445      	74.062164      	74.12003       	74.11219       	74.27603       	74.3408        	74.27098       	74.183846      	73.93844       	74.29829       	74.20947       	74.19091       	74.00319       	74.049416      	74.27164       	74.17016       	74.1341        	74.097946      	74.10803       	74.15504       	74.42816       	74.12659       	74.05749       	74.33409       	74.16369       	74.29701       	74.1128        	74.19019       	74.228         	74.00843       	74.123924      	74.140434      	74.24407       	74.15247       	74.09084       	74.335724      	74.08515       	74.220955      	74.21055       	74.15852       	74.17857       	74.14307       	74.196915      	74.030685      	74.09995       	74.22262       	74.079346      	74.24389       	74.210205      	74.11218       	74.17236       	74.04622       	74.39718       	74.03206       	73.980415      	74.00953       	74.023094      	74.39123       	74.08917       	74.23526       	74.29589       	74.23607       	74.14354       	74.032005      	
74.20653       	74.21202       	73.98412       	74.07716       	74.25706       	74.26874       	74.0872        	74.0828        	73.98828       	74.19534       	74.161285      	74.142         	74.281204      	74.068375      	74.07079       	74.34094       	73.97603       	74.09357       	74.074814      	74.27692       	74.213005      	74.01036       	74.174866      	74.178665      	74.16689       	74.04214       	74.26634       	74.02607       	74.0795        	73.91598       	74.17198       	73.96756       	74.51171       	74.05982       	74.25082       	74.19372       	74.08282       	74.20569       	74.22326       	74.07602       	74.134254      	74.15056       	74.12067       	74.29646       	74.141884      	74.07915       	74.17682       	74.15937       	74.19016       	74.12063       	74.14346       	74.1331        	73.97103       	74.28195       	74.0152        	74.20006       	74.18772       	74.12406       	74.29143       	74.30823       	74.25648       	74.18968       	74.26291       	74.17683       	74.024475      	74.41407       	74.0654        	74.10787       	74.11443       	74.200905      	74.37981       	74.0524        	74.20023       	74.046906      	74.31192       	74.13955       	74.11598       	74.13122       	74.16531       	74.19399       	74.126915      	74.19878       	74.12526       	74.25698       	74.04539       	74.362785      	73.95858       	74.27744       	74.128174      	74.14583       	74.08669       	73.90186       	74.25683       	74.318344      	74.25641       	74.155235      	74.12768       	74.17846       	74.13028       	74.19611       	
74.15034       	74.205086      	74.14738       	74.10527       	74.08648       	73.964066      	74.11894       	74.09779       	74.14751       	74.13974       	74.121155      	74.045074      	74.3475        	74.11072       	74.22272       	74.12945       	74.0132        	74.21281       	74.18151       	74.25288       	74.1452        	74.032         	74.28295       	74.15765       	74.08745       	74.11522       	74.09083       	74.127655      	74.04115       	74.10444       	74.107994      	74.168205      	74.25073       	74.200005      	74.076775      	74.21593       	74.2653        	74.04749       	74.00799       	74.16758       	74.34504       	74.102715      	74.22917       	74.19544       	74.080635      	74.14815       	74.11113       	74.19859       	74.15677       	74.08472       	74.07961       	74.24977       	74.27664       	74.07402       	74.04357       	73.992836      	74.220055      	74.22179       	74.175186      	74.20854       	74.265945      	74.29392       	74.20655       	74.09888       	74.18581       	74.29086       	74.21269       	74.094475      	74.28029       	74.06689       	74.19495       	74.293144      	74.16736       	74.100624      	74.092255      	74.17587       	73.96344       	74.1331        	74.281906      	74.16953       	74.04682       	74.15709       	74.04213       	74.3751        	74.25997       	74.10315       	74.078224      	74.19738       	74.12959       	74.25327       	73.84227       	74.02781       	74.194885      	74.13861       	74.42812       	74.175896      	74.169395      	74.064255      	74.12191       	74.27908       	
74.145645      	74.29467       	74.202866      	73.89533       	74.01162       	74.02388       	74.26649       	74.0766        	73.93041       	74.1971        	74.148796      	74.06232       	74.150826      	74.005104      	74.275894      	74.05254       	74.277115      	74.01757       	74.17613       	74.18052       	74.160164      	74.22088       	74.07405       	74.28246       	74.14131       	73.932755      	74.18262       	74.18355       	74.02212       	74.09098       	74.191154      	74.15322       	74.18183       	74.26005       	73.9564        	74.2548        	74.030014      	74.22492       	74.26438       	74.12043       	74.16598       	74.04543       	74.07065       	74.43185       	73.96154       	74.17724       	74.107315      	74.236725      	74.06017       	74.21608       	74.17763       	74.05847       	74.238625      	74.17357       	74.01061       	74.096985      	74.25427       	74.10474       	74.155815      	74.34392       	74.30599       	74.217766      	74.03169       	74.253456      	74.19958       	74.22726       	74.155716      	74.171875      	74.06785       	74.11492       	74.22572       	74.16766       	74.308655      	74.06986       	74.19823       	74.14702       	74.170944      	74.131546      	74.12277       	74.20791       	74.10902       	74.14952       	74.13553       	74.15694       	74.15763       	74.20056       	74.23447       	74.11176       	74.162445      	74.19843       	73.866425      	74.13473       	74.18699       	74.0848        	74.30429       	74.168846      	74.11868       	74.30632       	74.06916       	73.94635       	
74.37555       	74.243675      	74.123116      	74.0433        	73.95521       	74.18016       	74.30715       	74.07966       	74.13919       	74.05273       	73.93556       	74.24106       	74.20899       	74.12671       	74.006294      	74.04861       	74.24601       	74.22012       	74.07157       	74.139755      	74.225426      	74.180435      	74.17144       	74.10153       	74.18687       	74.01198       	74.29066       	74.067         	74.29122       	73.937164      	74.12715       	74.28663       	74.10018       	74.103134      	74.173744      	74.21331       	74.18324       	74.131096      	74.210556      	74.11519       	74.28283       	74.14478       	73.95055       	74.237495      	74.050125      	74.29391       	74.066536      	74.198395      	74.179115      	73.97031       	74.2186        	74.27866       	73.972176      	74.15592       	74.11341       	74.118744      	74.316635      	74.14744       	74.107574      	74.32566       	74.22271       	74.19237       	74.136696      	74.08909       	74.18664       	74.243065      	74.268814      	74.05129       	74.351204      	74.05714       	74.03298       	74.18032       	74.352585      	74.08722       	74.02179       	74.18146       	74.25004       	74.16782       	74.05189       	74.12205       	74.205795      	74.268326      	74.060196      	74.1908        	74.0448        	74.23085       	74.21347       	74.2154        	74.145096      	74.094444      	74.042755      	74.17096       	74.22843       	74.08325       	74.16661       	74.1177        	74.11744       	74.258705      	74.218056      	74.090004      	
74.17549       	74.17694       	74.214386      	74.047714      	73.927986      	74.01849       	74.11612       	74.11119       	74.166405      	74.2155        	74.17971       	74.05089       	74.23084       	74.285965      	73.89015       	74.216194      	74.1953        	74.22112       	74.13561       	74.14859       	74.23067       	74.02164       	74.1132        	74.15274       	74.11752       	74.17628       	74.23558       	74.017784      	74.22852       	74.095924      	74.08796       	74.20411       	73.94648       	74.263         	74.19627       	74.12893       	74.29634       	74.06147       	74.204216      	74.18065       	74.1037        	74.04464       	74.30124       	74.15136       	74.12596       	74.23877       	74.05918       	74.17869       	74.04126       	74.18837       	74.10948       	74.23007       	74.114006      	74.173546      	74.052536      	74.05176       	74.20294       	74.303635      	73.94198       	74.43038       	74.34025       	74.14825       	74.21019       	74.18852       	74.04673       	74.2984        	74.122         	74.12825       	74.18801       	74.10914       	74.09979       	74.27956       	73.970184      	74.2698        	74.111176      	74.06728       	74.29491       	74.30168       	73.99151       	74.22581       	74.07712       	74.20605       	74.291504      	74.20908       	74.10438       	74.23046       	74.1145        	74.207146      	74.11545       	74.11862       	74.14336       	74.220764      	74.00677       	74.097755      	74.317986      	74.04952       	74.11944       	74.09985       	74.13294       	74.2291        	
74.28556       	74.38531       	74.098785      	74.01932       	74.136444      	74.169556      	74.01063       	74.07232       	74.04375       	74.28398       	74.10966       	74.06842       	74.16434       	74.14248       	74.15507       	74.08376       	74.27975       	74.13126       	74.1506        	74.02776       	74.23681       	74.21584       	74.01144       	74.2593        	74.01105       	74.17226       	74.26764       	73.95352       	74.16028       	74.08962       	74.10072       	74.16705       	74.159676      	74.13343       	74.249756      	74.3021        	74.02079       	74.135         	74.081924      	74.24828       	74.1185        	74.304184      	74.19183       	73.99441       	74.210655      	74.19215       	74.14462       	74.189415      	74.184555      	74.12607       	74.15          	73.95687       	74.297966      	74.183105      	74.03045       	73.965904      	74.33686       	74.08929       	74.1337        	74.31292       	74.40987       	74.20516       	74.26449       	74.14123       	74.06839       	74.307175      	74.24496       	73.940895      	74.14003       	74.10866       	74.196915      	74.334595      	74.14406       	74.02902       	74.16658       	74.14602       	74.09811       	74.209496      	74.13387       	74.1022        	74.238815      	74.26157       	74.31332       	74.17123       	74.07222       	74.09052       	74.10423       	74.23832       	73.99343       	74.23416       	74.17636       	73.99466       	74.26617       	73.895485      	74.2421        	74.12561       	74.11306       	74.23865       	74.26742       	74.17834       	
74.19507       	74.26053       	74.27502       	74.08258       	74.26634       	73.950005      	74.20099       	74.1398        	74.071304      	74.15837       	74.105774      	74.39248       	73.956314      	74.136         	74.08892       	74.10133       	74.14998       	74.056694      	74.22883       	74.20476       	74.036476      	74.20595       	74.05049       	74.17271       	74.12624       	74.17516       	74.0379        	74.12294       	74.0631        	73.99637       	74.27805       	74.14551       	74.159775      	74.1843        	74.12653       	74.229         	74.122154      	74.231384      	73.999626      	74.19962       	74.223206      	74.1839        	74.102745      	74.188934      	74.26788       	73.95342       	74.11249       	74.08033       	74.33499       	74.114265      	74.05093       	74.22679       	73.98765       	74.48533       	73.987686      	73.94517       	74.25613       	74.10228       	74.312386      	74.37211       	74.21472       	74.17564       	74.27543       	74.09578       	73.99601       	74.202675      	74.2137        	74.16598       	74.16622       	74.20395       	73.99833       	74.10523       	74.272064      	74.23766       	74.136505      	73.900246      	74.38348       	74.076065      	74.24799       	74.28958       	74.26256       	74.00279       	74.08438       	74.27678       	74.16451       	74.25555       	74.04979       	74.01301       	74.22108       	74.22674       	74.15134       	73.921165      	74.18561       	74.047966      	74.19081       	74.13561       	73.95049       	74.17396       	74.18691       	74.279106      	
74.19964       	74.33888       	74.31096       	74.048096      	74.07953       	74.18195       	74.19578       	74.15893       	74.15484       	74.1925        	73.991806      	73.99982       	74.24694       	74.20749       	74.18877       	74.17946       	73.97857       	74.12228       	74.16139       	74.106224      	74.12092       	74.16465       	74.16888       	74.08001       	74.10052       	74.253136      	74.17977       	74.0873        	74.01183       	74.0193        	74.06957       	74.15781       	74.33651       	74.19628       	74.01444       	74.08756       	74.31846       	74.172516      	74.10269       	74.28693       	73.9201        	74.27488       	74.2877        	73.97058       	74.46146       	73.85633       	74.0442        	74.219406      	74.27145       	74.20483       	74.007286      	74.08818       	74.315445      	74.07946       	74.171844      	74.034065      	74.02242       	74.223915      	74.359535      	74.34865       	74.25291       	74.102974      	74.131256      	74.21995       	74.22397       	74.19573       	74.157036      	74.13216       	74.19836       	74.07754       	74.09959       	74.34038       	73.89296       	74.29406       	74.17726       	74.24506       	74.18145       	74.07297       	74.164986      	74.063736      	74.323044      	74.06274       	74.19075       	74.08395       	74.32281       	74.13076       	74.07695       	74.185585      	74.055534      	74.28999       	73.99928       	73.92213       	74.07695       	74.27853       	74.0719        	74.20253       	74.21504       	74.26151       	73.962875      	74.15527       	
74.184         	74.19522       	74.19862       	74.08331       	73.952446      	74.071106      	74.06927       	74.269936      	74.136925      	74.15263       	74.02941       	74.13602       	74.148865      	74.12427       	74.28335       	74.02656       	74.13077       	74.12315       	74.12155       	74.1453        	74.02753       	74.31903       	74.13194       	74.15464       	74.18492       	74.01726       	74.16054       	73.99087       	74.03228       	74.04421       	74.23762       	74.21775       	74.10355       	74.313866      	74.19432       	74.12482       	74.11245       	74.27689       	74.095505      	74.04643       	74.30551       	74.05892       	74.04566       	74.16766       	74.12822       	73.97194       	74.14587       	74.14902       	74.11555       	74.37357       	74.36207       	73.91295       	74.18297       	74.29078       	74.18611       	73.99132       	73.965         	74.23816       	74.347824      	74.30514       	74.32746       	74.16499       	74.144875      	74.18479       	74.21287       	74.013374      	74.29424       	74.16364       	74.11167       	74.19103       	74.14291       	74.3012        	74.064766      	74.203896      	74.12184       	74.13079       	74.218376      	74.23123       	74.223366      	74.06204       	74.056656      	74.22742       	74.1132        	74.14637       	74.10019       	74.21502       	73.994576      	74.348816      	74.077095      	74.10057       	73.98959       	74.01717       	74.16933       	74.19449       	74.34824       	74.07967       	74.26814       	74.07385       	74.117676      	73.99554       	
74.23583       	74.28064       	73.99102       	73.97169       	74.13028       	74.00927       	74.1015        	74.256065      	74.06535       	74.13228       	74.22389       	74.03198       	74.03389       	74.2407        	74.26109       	74.02486       	74.0505        	74.27064       	74.05962       	74.378456      	74.10398       	74.10669       	74.15888       	73.96178       	74.160286      	74.1554        	74.274086      	73.89722       	74.02261       	74.0961        	74.26347       	74.18049       	74.19449       	74.13572       	74.041         	74.1076        	74.45176       	74.0785        	74.119774      	74.21475       	74.224625      	74.23556       	74.092636      	74.054565      	73.773705      	74.224106      	74.27764       	74.21924       	74.34241       	74.041664      	74.226295      	74.23487       	74.12448       	74.02816       	74.162224      	73.97043       	74.20879       	74.229706      	74.41655       	74.18812       	74.20227       	74.2022        	74.216484      	74.258354      	74.023384      	74.172714      	74.13309       	74.19354       	74.27613       	74.013695      	74.08855       	74.13388       	74.187         	74.258644      	74.06117       	74.18068       	74.097496      	74.37154       	74.356895      	74.09167       	74.123634      	74.11385       	74.16061       	74.22657       	74.205864      	74.18391       	74.08378       	74.14762       	74.32103       	74.05705       	74.12333       	73.96344       	74.1087        	74.077324      	74.363335      	74.28823       	74.20416       	74.16425       	74.07629       	74.14647       	
74.18159       	74.33019       	74.05565       	73.882355      	74.03264       	74.21456       	73.96125       	73.94464       	74.236145      	74.23346       	74.27885       	74.24015       	73.915665      	74.28593       	74.22747       	74.067726      	74.22171       	74.05233       	74.076126      	74.17456       	74.101204      	74.17037       	74.049385      	74.38649       	73.976814      	74.02907       	74.22071       	74.13708       	73.96639       	73.93266       	74.43637       	74.09468       	74.2405        	74.21031       	73.99245       	74.07681       	74.1955        	74.248375      	74.08096       	74.288925      	74.184074      	73.98321       	74.18808       	74.12849       	73.938156      	74.12096       	74.30529       	74.251915      	74.17674       	74.175575      	74.06831       	74.33451       	74.016464      	74.165535      	74.04756       	74.17538       	74.12184       	74.1014        	74.33051       	74.44693       	74.21485       	73.99957       	74.03569       	74.25612       	74.273605      	74.1347        	74.17601       	74.12394       	74.14729       	74.28876       	74.1587        	74.168465      	74.13453       	74.111046      	74.14264       	74.23552       	74.06702       	74.1014        	74.12183       	74.118355      	74.25174       	74.21545       	74.13353       	74.18529       	74.09823       	74.24238       	74.218445      	74.106224      	74.06969       	74.19802       	74.112465      	74.02279       	74.293175      	74.11802       	74.040565      	74.03734       	74.31167       	74.21239       	74.055626      	73.99127       	
74.182175      	74.19831       	74.117256      	74.16334       	74.05674       	74.067764      	74.118935      	74.14286       	74.198494      	73.981125      	74.09494       	74.21554       	74.18496       	73.964874      	74.09674       	74.21239       	74.2029        	74.23559       	74.17026       	74.102356      	73.98058       	74.121376      	74.23099       	74.30251       	74.127205      	74.03528       	74.16083       	74.252655      	73.88908       	73.999504      	74.477646      	74.307465      	73.97931       	73.83173       	74.35361       	74.17139       	73.86916       	74.158264      	74.16322       	74.21641       	74.46725       	74.09501       	74.024895      	74.05686       	74.33764       	74.22603       	74.2236        	73.96302       	74.08877       	74.17166       	74.245346      	74.18891       	74.04613       	74.102715      	74.374054      	74.110695      	73.97657       	74.06193       	74.12929       	74.50888       	74.078476      	74.24009       	74.1705        	74.27363       	74.38744       	74.11791       	73.85389       	74.26604       	74.158745      	74.24172       	74.249504      	74.18195       	74.124504      	74.10045       	74.185646      	74.08485       	74.2242        	74.1517        	74.256584      	74.0891        	74.01893       	74.256744      	74.19218       	74.176186      	73.98165       	74.269104      	74.12001       	74.18458       	74.18539       	73.94546       	74.290215      	74.09721       	73.9921        	74.22066       	74.06522       	74.36326       	74.22347       	74.16242       	74.13788       	73.96712       	
74.13829       	74.091934      	74.08657       	74.28875       	74.10709       	73.991646      	74.083336      	74.21965       	74.05896       	74.1794        	74.14917       	74.035225      	74.15313       	74.165344      	74.14668       	74.00249       	74.15885       	74.13414       	74.19613       	74.336494      	74.02193       	74.11081       	74.04588       	74.22057       	74.148834      	74.10042       	74.19357       	73.968155      	74.1231        	74.16131       	74.12317       	74.236435      	74.14664       	74.05994       	74.01098       	74.1596        	74.24208       	74.12074       	74.192375      	74.34382       	74.35955       	73.99789       	74.06207       	74.06914       	74.21791       	74.15764       	74.31293       	74.08884       	74.25952       	73.93806       	74.37581       	74.119286      	74.33699       	74.02909       	74.177666      	74.07513       	73.913124      	74.320915      	74.083984      	74.18632       	74.39838       	74.282036      	74.16776       	74.16695       	74.03142       	74.18798       	74.205734      	74.10429       	74.135635      	74.25922       	74.16836       	74.23162       	73.99227       	74.28512       	74.16519       	74.24782       	74.10335       	74.0643        	74.242294      	74.25231       	74.03458       	74.20438       	74.24104       	74.123085      	74.23584       	74.20303       	74.1074        	74.22838       	74.0538        	74.05792       	73.96639       	74.27937       	74.151924      	74.181526      	74.14494       	74.06819       	74.22976       	74.101204      	74.088394      	74.27789       	
74.165245      	74.0651        	74.0342        	74.04593       	74.04706       	74.07259       	74.08736       	74.15852       	74.13791       	74.04833       	74.20303       	74.18006       	74.25179       	74.001144      	74.222305      	74.30886       	74.07201       	73.94293       	74.15601       	74.125916      	74.13115       	74.15717       	74.17021       	73.91287       	74.33036       	74.07161       	74.150696      	74.20206       	74.08622       	74.037865      	74.160934      	74.20179       	74.24992       	74.031044      	74.07385       	74.04402       	74.29309       	74.16746       	73.987816      	74.154854      	74.414986      	74.15317       	74.086494      	74.21628       	74.31198       	74.033325      	74.15483       	74.15992       	74.16842       	74.12363       	74.18723       	74.25362       	74.16066       	74.100555      	74.03182       	74.18371       	74.04716       	74.0716        	74.05606       	74.410614      	74.35388       	74.1787        	74.209854      	74.098015      	74.01226       	74.301796      	74.163666      	74.02361       	74.297554      	74.08245       	74.2148        	74.32107       	73.94638       	74.313126      	74.20401       	74.057045      	74.17676       	74.14213       	74.02437       	74.376945      	74.12462       	74.0611        	74.29192       	74.15617       	74.32093       	73.97207       	74.23282       	74.14775       	74.19184       	74.18386       	73.84287       	74.16859       	74.24791       	74.239876      	74.14026       	74.21165       	74.04217       	74.08678       	74.35163       	74.07485       	
74.28867       	74.1738        	74.0351        	74.12746       	73.975464      	74.28873       	74.04686       	74.02959       	74.18817       	74.14707       	74.02719       	74.31148       	74.13221       	73.969124      	74.232315      	74.212746      	73.90376       	74.07679       	74.28228       	74.08809       	74.21789       	74.068665      	74.1063        	74.239235      	74.04159       	74.351974      	74.08365       	74.20038       	73.90035       	74.098724      	74.164505      	74.196045      	74.18759       	74.17251       	73.883644      	74.08473       	74.094444      	74.226036      	74.44452       	74.19772       	74.132324      	74.14031       	74.12986       	74.22625       	74.15983       	73.98714       	74.15692       	74.25746       	74.236374      	74.10538       	74.09126       	74.17807       	74.1093        	74.31948       	74.12831       	74.21536       	73.893486      	74.04775       	74.270454      	74.22112       	74.39763       	74.17698       	74.19703       	74.05432       	74.17706       	74.24037       	74.064735      	74.14774       	74.11555       	74.096634      	74.2023        	74.26987       	74.12783       	74.22189       	74.085785      	74.1696        	74.29983       	74.112976      	74.16593       	74.173325      	74.20124       	74.0515        	74.16721       	74.16468       	74.28041       	74.04114       	74.20729       	74.25226       	74.03694       	74.2265        	73.85904       	74.181694      	74.23066       	74.28488       	74.17414       	74.03212       	74.16282       	73.98659       	74.01288       	74.42594       	
74.2575        	74.15565       	74.09134       	74.0744        	74.06413       	74.071         	74.104355      	74.074104      	74.22275       	73.97076       	74.13526       	74.07165       	74.027626      	74.23946       	74.11515       	74.183         	74.22144       	74.16093       	74.10761       	74.18041       	74.10208       	74.068596      	74.07409       	74.19287       	74.06463       	74.27721       	73.99415       	74.26988       	74.1483        	74.09534       	74.09073       	74.166084      	74.1499        	74.201096      	74.0176        	74.22425       	74.16443       	74.07719       	74.20709       	74.30154       	74.097404      	74.28973       	74.04838       	74.08466       	74.39151       	74.044525      	74.17854       	74.24808       	74.12031       	74.09065       	74.046394      	74.26885       	74.310875      	73.97134       	74.30199       	74.2235        	74.12854       	73.89458       	74.09826       	74.31566       	74.43151       	74.12431       	74.125496      	74.122536      	74.334465      	74.080734      	74.20707       	74.05071       	74.22056       	74.07052       	74.114586      	74.19912       	74.20329       	74.21577       	74.13461       	74.17967       	74.224915      	74.09063       	74.107925      	74.094284      	74.27047       	74.16187       	74.18921       	74.2356        	74.092255      	74.19012       	73.99623       	74.27661       	74.201324      	74.241844      	73.99296       	74.08229       	74.20822       	74.09772       	74.22597       	74.06959       	74.1212        	74.04393       	74.07171       	74.56121       	
74.301414      	74.137955      	74.17674       	74.015015      	73.93271       	73.963264      	74.13416       	74.27739       	74.02557       	74.14611       	74.07288       	74.11928       	74.21363       	74.006615      	74.442184      	74.0015        	74.06649       	74.1936        	73.947845      	74.364365      	73.9543        	74.290215      	74.1689        	74.01136       	74.09111       	74.34058       	74.057396      	73.99492       	74.07355       	74.19818       	74.20442       	74.126305      	74.168846      	74.10893       	74.17941       	74.15398       	74.21633       	74.18679       	74.354065      	74.09548       	74.19111       	74.141594      	74.02072       	74.047264      	74.13117       	74.12356       	74.09926       	74.334694      	74.05124       	74.32825       	71.599915      	72.83642       	74.28375       	74.3           	74.197395      	74.232475      	74.20163       	74.03299       	73.944786      	74.270546      	74.36102       	74.18761       	74.13778       	74.15225       	74.348175      	74.15317       	74.05109       	74.04163       	74.36245       	73.9609        	74.06759       	74.29142       	74.026665      	74.24499       	74.03434       	74.1488        	74.204346      	74.323524      	74.09038       	74.18199       	74.27353       	74.031654      	74.11722       	74.25971       	74.11795       	74.10111       	74.328514      	74.11896       	74.18046       	74.1393        	74.16591       	74.06813       	74.28549       	73.90719       	74.43978       	74.05035       	74.174576      	73.90523       	73.9784        	74.47086       	
74.23235       	74.18854       	74.15503       	74.11207       	74.02103       	73.996994      	74.23656       	74.01716       	74.11887       	74.06186       	74.04663       	74.227974      	74.3132        	73.81989       	74.19197       	74.10649       	74.26378       	74.08136       	74.170876      	74.32507       	73.87084       	74.20447       	74.271286      	74.19194       	74.016914      	74.11916       	74.18975       	74.166534      	74.10693       	74.13024       	74.07014       	74.05671       	74.32578       	74.21045       	74.00748       	74.09331       	74.17759       	74.17803       	74.1727        	74.21015       	73.958916      	74.14792       	74.11804       	74.23093       	74.20553       	74.092316      	74.10794       	74.03464       	74.377815      	74.13768       	74.060555      	74.026886      	74.258644      	74.20054       	74.10692       	74.363266      	74.24691       	73.89904       	74.03296       	74.20859       	74.36336       	74.223755      	74.24311       	74.081375      	74.18416       	74.22067       	74.08487       	74.19841       	74.30326       	74.01111       	74.218056      	74.04797       	74.18956       	74.25772       	74.03733       	74.04359       	74.22739       	74.368675      	74.089775      	73.99366       	74.31649       	74.26528       	74.16266       	74.13802       	74.03683       	74.356834      	74.026375      	74.073235      	74.30432       	74.05025       	74.10331       	74.20417       	74.132545      	74.06399       	74.17387       	74.25404       	74.02538       	74.04612       	74.21243       	74.12732       	
74.22443       	74.20957       	74.02868       	74.05967       	74.10231       	74.13483       	74.09124       	74.241356      	74.060295      	74.12356       	74.03361       	74.127655      	74.38235       	74.10862       	73.938736      	74.072876      	74.05707       	74.43226       	74.123184      	74.08199       	73.96435       	74.19791       	74.28061       	74.08202       	74.12743       	74.2246        	74.15293       	73.982285      	74.11367       	74.08189       	74.26188       	74.148384      	74.07126       	74.074135      	74.18477       	74.28072       	73.89114       	74.19776       	74.177284      	74.202         	74.02526       	74.25017       	74.13227       	74.21253       	74.21612       	74.00852       	74.128204      	74.22618       	74.2398        	74.18632       	74.14126       	74.18313       	74.07502       	74.1746        	74.343666      	74.00122       	74.13829       	74.1245        	74.11892       	74.02437       	74.49241       	74.322655      	74.05531       	74.275566      	74.2163        	73.953735      	74.19235       	74.1526        	74.26135       	74.03702       	74.015045      	74.27253       	74.309006      	74.03125       	74.20857       	74.14177       	74.302155      	74.05018       	73.993225      	74.36722       	74.23285       	74.07792       	74.21782       	74.12297       	74.217155      	73.985435      	74.2102        	74.24226       	74.24311       	74.2513        	73.83769       	74.003365      	74.20122       	74.2927        	74.37896       	73.86534       	74.139015      	74.03931       	74.19546       	74.16384       	
74.15137       	74.18734       	74.04265       	73.98766       	74.026306      	74.02167       	74.11112       	74.19002       	74.18279       	74.22557       	73.98129       	74.27928       	74.259125      	73.97006       	74.1982        	73.967636      	74.29887       	74.08861       	73.91679       	74.275604      	74.192276      	74.12854       	74.09725       	74.18684       	74.15941       	74.08904       	74.35475       	73.9411        	74.16858       	73.9805        	74.079636      	74.17021       	74.26607       	74.267166      	73.98818       	74.13228       	74.10161       	74.28988       	74.23346       	74.0976        	74.00621       	73.99387       	74.29183       	74.25881       	74.21676       	73.908806      	74.072845      	74.39497       	74.16908       	74.18779       	74.303375      	74.12638       	73.99914       	74.29712       	74.29878       	74.237785      	74.08991       	73.99956       	74.09808       	74.10808       	74.39795       	74.187035      	74.126656      	74.103775      	74.280594      	74.21395       	74.150986      	74.15934       	74.192566      	74.24268       	74.09465       	74.13792       	74.268456      	74.05287       	74.20757       	74.2665        	74.172966      	74.02687       	74.26535       	74.253006      	74.02919       	74.09743       	74.19107       	74.18811       	74.09273       	74.09943       	74.20167       	74.11321       	74.23447       	74.06447       	74.09221       	74.01459       	74.18043       	74.13498       	74.02111       	74.27724       	74.24838       	74.109535      	74.20091       	74.11311       	
74.17778       	74.1883        	74.001434      	73.928116      	74.13496       	73.99888       	74.13213       	74.06318       	74.27872       	74.13767       	74.0821        	74.03355       	74.09635       	74.11005       	74.11373       	74.09066       	74.18377       	74.278275      	74.17342       	74.03617       	74.14415       	74.20032       	74.17577       	74.13219       	74.148384      	74.18344       	74.07304       	74.18265       	74.02736       	73.95648       	74.08686       	74.24399       	74.093475      	74.33713       	74.32408       	74.02247       	74.15508       	74.10953       	74.04441       	74.22651       	74.003685      	74.17427       	74.00349       	74.1498        	74.15033       	74.1485        	74.24901       	74.1218        	74.05937       	74.230156      	74.22815       	74.207275      	74.11928       	73.99685       	74.17987       	74.22017       	74.283         	74.03478       	74.17724       	74.162895      	74.54765       	74.319855      	74.04818       	74.19981       	74.07038       	74.14086       	74.111046      	74.230446      	74.087326      	74.18354       	74.08039       	74.28164       	74.06567       	73.99086       	74.232056      	74.20728       	74.23753       	74.038994      	74.35852       	74.12607       	74.146225      	74.102585      	74.25086       	74.202446      	74.142006      	74.121796      	74.04685       	74.20028       	74.23884       	74.07645       	74.174225      	74.35359       	73.8703        	73.822014      	74.18265       	74.658806      	73.56384       	74.72533       	73.58028       	72.67463       	
74.21593       	74.12178       	73.92819       	73.95308       	74.15135       	74.05398       	74.18996       	73.97682       	74.10711       	74.32369       	74.114136      	74.12568       	74.04006       	74.188034      	74.1088        	74.16539       	74.20298       	74.059944      	74.07965       	74.40072       	74.16987       	74.06341       	74.0622        	74.13739       	74.11367       	74.08175       	74.114136      	74.284615      	73.88924       	74.12713       	74.12791       	74.04175       	74.17375       	74.23941       	74.37318       	74.27035       	74.239975      	74.21637       	73.90023       	73.99309       	74.009796      	74.30874       	74.07143       	73.508         	73.77693       	74.00012       	74.35698       	74.159225      	74.28609       	74.29295       	74.33111       	73.922585      	73.95623       	74.03364       	74.15065       	74.1277        	74.0995        	74.36337       	73.50986       	73.524315      	73.88626       	74.154915      	74.15297       	74.00592       	74.07612       	74.136154      	74.178024      	74.1812        	73.90804       	73.832146      	74.082664      	74.1106        	74.27044       	73.86399       	74.15531       	73.88622       	74.20011       	74.210464      	74.0092        	73.9721        	74.09912       	74.04652       	74.066025      	73.80248       	73.88535       	74.080154      	74.01448       	73.84066       	74.17007       	73.97321       	69.87005       	74.53009       	74.01925       	73.44708       	74.35062       	74.80441       	73.34283       	75.0716        	73.02349       	73.75284       	
74.32188       	74.13295       	73.97973       	74.00104       	74.139404      	74.11776       	74.03973       	74.1193        	74.10117       	74.10819       	74.10151       	74.07961       	74.26068       	74.282074      	74.03377       	74.08575       	74.10846       	74.00957       	74.08215       	74.24457       	74.15001       	74.164955      	74.2802        	74.18987       	74.085236      	74.249535      	74.09812       	74.27121       	74.168724      	72.93386       	74.61251       	73.71513       	73.61699       	73.78958       	71.32375       	75.03983       	75.70754       	73.83264       	73.58567       	74.10455       	70.32949       	73.3405        	73.59088       	74.19341       	74.37228       	73.05879       	71.829765      	74.11371       	73.212524      	74.529625      	75.214874      	72.131874      	74.646416      	72.01873       	74.94357       	73.14697       	74.93043       	73.78633       	72.661705      	74.80629       	79.36888       	75.106606      	73.98775       	73.89712       	74.070984      	74.0648        	74.2111        	74.14453       	74.08134       	74.13798       	73.975105      	74.242165      	74.16391       	74.03207       	74.25212       	74.03475       	74.18056       	74.21211       	74.25241       	74.014206      	74.01394       	74.33872       	74.17667       	74.134094      	74.062904      	74.28077       	73.51337       	73.829895      	74.31958       	74.043106      	65.19515       	70.26803       	74.17817       	74.2934        	74.237         	74.1869        	74.1264        	74.31081       	74.17033       	74.178955      	
74.16259       	74.31409       	73.89115       	73.84321       	73.96987       	74.03979       	74.07553       	73.943214      	74.158844      	74.16852       	74.37746       	74.33489       	74.27319       	74.12123       	73.771034      	74.1151        	74.14511       	73.74931       	74.10265       	74.130264      	74.14965       	74.18555       	73.933876      	74.13161       	73.876076      	74.31743       	74.33196       	74.02209       	70.92411       	74.11963       	74.54772       	73.90171       	74.13888       	73.84514       	73.7421        	74.36936       	74.253136      	74.007126      	74.093216      	73.94057       	74.29274       	73.846436      	74.21748       	74.28391       	74.152756      	74.27889       	74.272896      	74.068695      	74.064415      	74.03608       	74.22812       	74.182236      	74.15931       	74.19045       	73.9811        	74.32541       	74.10523       	74.01455       	74.22955       	74.65789       	79.47528       	75.95524       	73.853485      	73.802734      	74.24276       	73.93361       	74.03799       	74.24505       	74.21005       	74.06715       	74.2582        	74.16276       	73.99434       	74.039566      	74.28434       	74.1754        	74.01395       	74.255585      	74.13461       	74.22782       	74.065254      	74.24776       	74.13322       	74.23714       	73.95197       	74.32293       	74.09492       	74.06287       	74.15086       	74.166275      	65.96795       	73.87853       	74.63762       	74.24221       	74.08189       	74.251564      	73.860405      	74.58312       	74.133514      	74.01147       	
74.326904      	71.91567       	72.52129       	75.35262       	73.76291       	73.695755      	74.22161       	73.97795       	74.08841       	74.14576       	74.22708       	74.20679       	74.223145      	74.30269       	74.34286       	74.10169       	74.0842        	74.052124      	74.115944      	74.05907       	74.07913       	73.781044      	74.2731        	73.97189       	73.99528       	74.289894      	74.17383       	74.128845      	72.03012       	72.12332       	74.28889       	74.19143       	74.464355      	74.401924      	73.91236       	74.01219       	74.149475      	74.51984       	73.90431       	74.06967       	74.39149       	74.06567       	74.29334       	74.28881       	74.26604       	74.2288        	74.16903       	74.07367       	74.0662        	74.22525       	74.02666       	74.30569       	74.32156       	73.94014       	74.264565      	74.12787       	74.02601       	74.21797       	74.07133       	74.58112       	77.45722       	78.49983       	74.34569       	73.93426       	73.170456      	73.68757       	74.24364       	74.117065      	74.242905      	74.1145        	74.12346       	74.13926       	74.216866      	74.08137       	74.063995      	74.148575      	74.217384      	74.1286        	74.086845      	73.892006      	74.36616       	74.26652       	74.058105      	74.04452       	74.3764        	74.335655      	74.209854      	73.98063       	74.1941        	74.09711       	69.30231       	73.381         	73.81247       	74.42199       	73.54888       	74.49681       	74.46057       	74.217155      	74.10805       	74.018005      	
74.174644      	74.16329       	74.25108       	73.72219       	73.521835      	73.77633       	73.85733       	74.054         	74.09464       	74.13815       	74.1573        	74.27401       	74.175995      	74.052345      	74.06799       	74.16097       	74.36301       	74.09795       	74.34491       	73.89879       	74.216125      	74.29394       	74.532326      	73.70377       	74.3656        	73.98138       	74.44146       	74.2339        	70.7643        	72.29068       	74.25869       	74.55079       	73.972275      	72.69763       	72.49502       	70.763016      	70.489365      	72.624535      	73.5521        	73.604416      	74.49032       	74.60833       	74.53186       	74.18134       	74.107635      	74.44694       	76.132576      	75.45863       	74.88153       	75.756584      	75.69173       	75.97978       	75.4768        	75.15218       	75.01108       	74.462814      	74.1826        	73.852         	74.04401       	74.435905      	75.22562       	73.93783       	75.960785      	77.50536       	75.98463       	74.01928       	73.87149       	74.163445      	73.75574       	73.4694        	74.2925        	74.29679       	73.87255       	74.3694        	73.7054        	74.31622       	74.16651       	74.0511        	74.23287       	74.390686      	74.02573       	74.16934       	74.31884       	74.05635       	74.25958       	74.08791       	74.16869       	74.21312       	74.01151       	74.25373       	70.67464       	74.350716      	74.08671       	74.21756       	72.73897       	73.06405       	74.524155      	74.5033        	74.30976       	74.80422       	
74.22916       	74.20449       	73.90843       	73.910866      	73.856895      	73.79171       	74.265335      	74.27627       	74.210205      	73.96359       	73.96456       	73.93031       	74.15468       	74.11741       	73.93898       	74.18904       	74.21342       	74.14003       	74.184105      	74.17039       	74.20708       	74.22761       	74.34434       	74.79901       	74.00384       	74.09056       	74.19902       	73.98455       	71.234795      	73.361786      	74.61668       	74.14315       	74.124756      	74.07692       	73.69348       	73.02226       	74.46527       	74.69045       	74.32748       	74.165         	73.04936       	73.12377       	73.90726       	74.81954       	74.01582       	73.2092        	72.87105       	73.4325        	73.02724       	72.37659       	73.19121       	73.85726       	73.83109       	74.39248       	74.970634      	75.2669        	75.33236       	75.20887       	75.34418       	74.889015      	74.866875      	74.20789       	74.54095       	75.05446       	75.166115      	75.842125      	77.41329       	78.45514       	73.90515       	73.88256       	74.02494       	74.11574       	74.02489       	74.1284        	73.3518        	74.00304       	74.21179       	74.13207       	74.20388       	74.131874      	74.15026       	74.25117       	74.15544       	73.97943       	74.283325      	73.9819        	74.268005      	74.01455       	74.232285      	74.110466      	70.92533       	73.61353       	74.235466      	74.200966      	74.33861       	74.124626      	72.23086       	72.81315       	73.622406      	74.31361       	
