# www.neaspec.com
# Scan:	 	Whitelight Imaging
# Project:	 	20251007_PS
# Description:	 	
# Date:	 	10/07/2025 16:01:01
# Scanner Center Position (X, Y):	[µm]	49.66	48.17	 
# Rotation:	[°]	0	 	 
# Scan Area (X, Y, Z):	[µm]	5.000	5.000	0.000
# Pixel Area (X, Y, Z):	[px]	100	100	1
# Interferometer Center/Distance:	[µm]	546.322	0.000	 
# Averaging:	 	1	 	 
# Integration time:	[ms]	5	 	 
# Wavenumber Scaling:	 	1.000000	 	 
# Laser Source:	 	4.5-15 µm nano-FTIR laser
# Detector:	 	R
# Target Wavelength:	[µm]	7.502	 	 
# Demodulation Mode:	 	Fourier
# Tip Frequency:	[Hz]	238,800.109	 	 
# Tip Amplitude:	[mV]	13.000	 	 
# Tapping Amplitude:	[nm]	74.298	 	 
# Modulation Frequency:	[Hz]	0.000	 	 
# Modulation Amplitude:	[mV]	0.000	 	 
# Modulation Offset:	[mV]	0.000	 	 
# Setpoint:	[%]	79.75	 	 
# Regulator (P, I, D):	 	4.206850	8.625812	1.000000
# Tip Potential:	[mV]	0.000	 	 
# M1A Scaling:	[nm/V]	0.426	 	 
# M1A Cantilever Factor:	 	1,000	 	 
# Q-Factor:	 	452.3	 	 
# Version:	 	2.1.11536.0
94.783806      	98.8946        	103.8431       	101.464775     	92.7693        	90.79855       	97.48073       	96.238754      	89.46071       	98.76048       	92.67602       	92.34347       	96.1652        	91.17756       	93.80331       	98.00263       	92.25589       	92.0594        	97.10787       	93.149864      	92.863106      	97.81756       	94.25853       	92.491165      	96.65052       	99.927925      	95.71304       	96.18807       	99.80063       	94.559814      	99.48099       	107.40519      	98.637215      	99.81418       	103.04325      	99.05258       	99.89792       	99.57014       	97.569466      	102.647446     	100.924194     	91.64997       	102.035675     	103.291595     	93.68218       	99.689835      	100.1089       	94.11928       	97.34846       	98.96573       	93.4744        	96.87151       	94.84774       	93.175125      	100.2725       	91.316025      	90.35668       	93.498795      	90.74891       	91.0583        	94.28289       	87.80962       	84.00758       	89.42955       	89.740555      	86.76773       	87.9415        	89.09789       	89.162506      	85.94519       	89.189766      	92.17347       	90.38274       	87.90852       	84.25667       	90.80354       	96.81512       	84.36232       	89.59868       	95.09086       	88.37874       	88.98638       	91.57822       	91.83247       	94.820305      	93.645645      	92.872185      	99.09933       	99.025444      	96.34037       	103.654625     	100.14735      	97.80665       	101.73375      	101.23788      	97.18928       	99.63014       	99.72783       	95.9003        	100.64049      	
81.02839       	79.87983       	83.53268       	87.55781       	86.8085        	83.541374      	80.17597       	83.6101        	83.75494       	85.01307       	81.82047       	80.08443       	85.265465      	83.98026       	79.20508       	83.73815       	86.10361       	79.18769       	82.447464      	89.87842       	82.40983       	79.90523       	87.72172       	85.66515       	87.54711       	89.6618        	88.80403       	89.09314       	90.17536       	92.711235      	98.70556       	92.969986      	94.04484       	98.472565      	92.994064      	95.74029       	97.96378       	97.42846       	95.19824       	88.711174      	100.27509      	100.87238      	93.33236       	95.80465       	103.910446     	97.92319       	91.28051       	97.82144       	99.01774       	97.26173       	93.253044      	95.01008       	96.37512       	97.96284       	89.57944       	96.74049       	97.25877       	84.1112        	93.18534       	100.346725     	85.656136      	87.687454      	95.23059       	88.31928       	89.813156      	95.162994      	90.57958       	88.70737       	91.67078       	92.7996        	92.468155      	92.0433        	90.31737       	94.07327       	94.60096       	90.05928       	93.665764      	96.634926      	90.22897       	90.97923       	96.74963       	94.30096       	94.78031       	95.21766       	94.6837        	96.09947       	104.03072      	103.74267      	102.94917      	103.194046     	103.12589      	106.91357      	107.04597      	102.871124     	106.57497      	101.93663      	97.40117       	99.82105       	103.85897      	96.16239       	
94.65321       	94.06821       	94.11898       	91.9917        	90.00101       	91.91896       	92.78527       	86.943184      	84.8791        	97.79955       	92.02569       	84.51494       	94.4278        	92.42919       	84.13472       	94.5743        	87.7784        	92.29184       	92.414795      	83.80653       	90.914795      	96.08276       	86.94087       	87.02969       	96.19465       	89.12355       	89.12242       	92.72419       	90.08597       	90.742905      	94.13485       	93.06819       	94.26542       	89.869125      	88.95562       	94.58436       	92.4286        	87.96335       	94.35593       	91.87685       	84.6573        	93.09392       	94.722664      	84.05097       	90.836655      	93.072845      	80.95494       	90.97773       	93.542274      	86.62462       	91.16821       	87.812675      	84.40384       	95.37703       	83.3925        	83.61168       	93.83578       	79.59035       	80.482254      	93.63216       	85.35432       	77.301834      	86.83843       	82.9649        	84.03465       	84.26437       	81.04118       	84.67479       	83.73539       	79.199615      	85.731186      	87.32931       	75.857956      	79.97225       	87.47702       	79.60573       	80.79843       	85.77452       	82.46122       	75.651306      	86.090904      	90.352425      	82.2531        	87.71556       	90.82216       	90.30428       	92.64699       	88.62599       	90.817986      	101.529144     	96.87955       	93.23923       	107.09903      	95.94429       	87.94015       	96.54321       	86.24564       	84.69789       	88.06648       	86.24283       	
91.20905       	91.30822       	94.90701       	94.61846       	87.607346      	86.34311       	95.64013       	87.38879       	81.95004       	95.56332       	93.21722       	82.91319       	88.38952       	91.24651       	89.68641       	86.10889       	88.186104      	91.06011       	88.09163       	86.14936       	92.07895       	91.294235      	86.12458       	87.298744      	91.59596       	92.37094       	87.852936      	87.07389       	89.12658       	95.46708       	94.90182       	89.66676       	97.61248       	94.82016       	91.37001       	95.99312       	92.05298       	94.134834      	97.56123       	89.96371       	89.62907       	96.61055       	92.68538       	88.16365       	95.10391       	92.91939       	87.044685      	94.11026       	93.60556       	88.762955      	91.1678        	89.260284      	89.7773        	92.05033       	90.05481       	89.87336       	86.901375      	84.378494      	91.84151       	92.39799       	84.213974      	88.42586       	91.11532       	84.145676      	82.96278       	87.905106      	88.90517       	86.14269       	79.86316       	86.42436       	89.73917       	84.68478       	81.5212        	92.88122       	85.87822       	82.20274       	95.24257       	91.18023       	85.30012       	90.97352       	93.764404      	91.62113       	96.027214      	94.97362       	95.75302       	96.35254       	100.565506     	100.43202      	111.32544      	110.90897      	108.6202       	117.21293      	114.19927      	107.27397      	107.72022      	99.74675       	91.77821       	94.20991       	91.00402       	87.311264      	
89.65854       	92.8169        	94.998764      	94.90718       	86.54703       	83.81471       	93.19532       	96.43624       	80.06999       	92.45812       	94.85592       	84.994995      	88.17854       	94.11548       	92.010666      	89.65661       	90.915245      	89.57704       	98.64654       	89.20532       	88.90097       	99.77489       	89.58359       	87.34893       	99.06528       	98.84285       	92.733765      	93.41486       	92.00401       	102.27565      	101.23994      	92.78441       	101.364716     	102.7249       	92.48229       	96.94671       	101.803696     	96.75595       	98.5647        	97.99833       	95.16635       	97.12691       	99.091446      	92.74663       	100.12401      	97.32421       	90.98591       	100.31799      	98.74531       	94.09456       	93.48088       	99.07077       	93.74663       	95.80598       	94.226654      	93.73498       	92.58206       	89.30535       	93.36126       	97.336845      	87.87349       	89.37486       	95.270805      	90.42503       	87.66024       	92.251175      	91.688385      	86.12369       	91.8403        	93.573494      	90.452255      	89.32215       	86.637566      	93.69404       	92.613716      	88.07568       	90.53186       	94.99126       	85.680855      	85.77558       	102.034256     	92.744255      	96.20488       	101.20618      	94.89456       	100.40058      	113.00536      	110.401726     	121.392944     	122.69957      	114.70628      	125.617424     	126.094765     	107.6274       	109.06269      	106.73882      	86.55375       	94.244804      	88.6532        	79.76242       	
85.73743       	93.302864      	97.82769       	94.896774      	86.87267       	91.10204       	98.03019       	90.53073       	90.24071       	97.0452        	89.884995      	92.581985      	98.71738       	87.60583       	91.68151       	97.926636      	89.112915      	92.72956       	98.75326       	88.08023       	91.446815      	96.75105       	93.22781       	91.81819       	97.15007       	93.14733       	93.5086        	95.54098       	94.140854      	100.69107      	98.13936       	89.71744       	103.230545     	99.2008        	92.30142       	98.73038       	101.78697      	92.0301        	95.51444       	101.359985     	94.803116      	99.869385      	94.21285       	88.71408       	99.61882       	97.2194        	89.39506       	99.87163       	96.61439       	87.90929       	100.8474       	92.25237       	91.75723       	97.792366      	90.655304      	88.680664      	94.878784      	92.34836       	89.7773        	95.07358       	89.58583       	88.592514      	95.58865       	86.210236      	89.361404      	92.63871       	86.16731       	89.78523       	93.703804      	88.39619       	87.95748       	90.958046      	88.1068        	90.219246      	92.79599       	87.64071       	90.23337       	89.731255      	93.05106       	90.1224        	91.77923       	95.83235       	92.07319       	91.49763       	102.671104     	108.5751       	113.72415      	123.33951      	123.87097      	123.6902       	128.51834      	123.31348      	123.233154     	119.11933      	104.509605     	101.693306     	99.27912       	84.91857       	86.13294       	91.88359       	
91.85379       	84.82157       	87.77458       	95.14462       	99.825         	90.50304       	87.46099       	96.80786       	91.73616       	89.410774      	95.48516       	93.81505       	91.9429        	94.86584       	87.49451       	93.31233       	98.59009       	84.48516       	94.37976       	98.41716       	83.10519       	92.38864       	99.52633       	90.37027       	92.00241       	94.75153       	94.97199       	95.90133       	88.27965       	92.74169       	98.3997        	89.2614        	92.492386      	98.2434        	92.352715      	90.65243       	95.64791       	88.51805       	89.00313       	100.11454      	91.666046      	93.543976      	98.246826      	89.673355      	95.17635       	94.10871       	91.04666       	97.98539       	94.43942       	86.52201       	94.35361       	100.00914      	89.23255       	94.18851       	95.52239       	89.47102       	90.83443       	96.40722       	91.18          	91.1631        	91.73551       	89.32954       	94.290535      	89.98605       	83.96966       	93.29078       	89.66136       	87.617966      	90.358955      	91.989815      	86.83646       	89.03336       	93.1237        	88.73909       	90.95411       	88.14074       	88.697014      	91.22169       	90.87737       	91.44036       	95.4244        	93.03535       	85.00666       	105.357025     	110.34427      	108.02269      	126.6631       	130.0168       	123.73959      	128.83572      	127.64014      	123.19821      	129.78345      	116.87776      	105.33062      	107.934586     	88.472916      	81.40335       	89.6349        	81.33561       	
94.067055      	100.71882      	99.00533       	92.233315      	88.65471       	94.78055       	99.66434       	92.44105       	92.87023       	94.06904       	94.42937       	98.45826       	93.41389       	93.52565       	99.325325      	92.62496       	92.54687       	100.95452      	94.83482       	91.424835      	97.87135       	94.40457       	94.4665        	98.90621       	97.3535        	91.97907       	96.70613       	101.04555      	101.37348      	95.51078       	100.44536      	100.821396     	97.951546      	97.70935       	99.92024       	104.29229      	100.70586      	96.118576      	99.601715      	102.59941      	99.95409       	96.40484       	103.80309      	100.63244      	93.93717       	101.91131      	100.27886      	98.38809       	99.79712       	97.499344      	92.775314      	101.986465     	99.92174       	96.84392       	102.33527      	95.04829       	98.51848       	97.98597       	94.047134      	94.31417       	100.60484      	89.631424      	91.16731       	100.49669      	93.64013       	90.52009       	96.541534      	95.34987       	94.849594      	92.860794      	94.74533       	94.4112        	93.10575       	92.63635       	97.5571        	94.49678       	88.624016      	95.09119       	97.44287       	95.77232       	96.13679       	100.33542      	98.454254      	105.97065      	123.71123      	126.23205      	135.91591      	142.52892      	134.7364       	130.37964      	134.20625      	127.18375      	128.96266      	126.55385      	108.93042      	101.58597      	95.63013       	78.29373       	87.46589       	86.63025       	
99.30969       	96.26747       	90.32604       	89.62778       	95.51591       	94.45428       	87.64201       	96.95409       	99.05555       	88.71597       	95.756744      	93.07907       	93.037735      	95.73701       	95.49086       	91.53624       	97.3787        	94.51184       	91.08484       	98.82909       	95.77565       	96.06291       	98.11012       	90.596085      	95.04391       	104.88663      	90.394936      	97.5867        	103.87764      	93.23007       	96.92174       	101.05557      	96.23706       	99.18448       	100.79388      	91.252205      	96.436615      	104.77567      	93.78065       	99.19226       	103.05379      	93.84692       	99.6243        	99.18951       	95.114105      	99.12975       	100.98746      	92.16882       	98.78573       	103.73019      	94.61548       	99.86109       	98.95561       	91.99242       	96.90323       	102.60585      	90.772896      	99.02243       	98.05881       	90.517685      	98.2659        	97.4084        	93.406876      	94.70562       	95.439285      	90.87694       	98.39601       	96.772385      	90.4465        	95.950775      	90.77751       	91.75715       	97.30453       	90.17402       	94.334175      	96.80344       	91.25035       	93.73091       	98.8929        	95.2743        	92.98743       	98.62391       	105.878044     	113.900665     	124.24129      	135.67372      	145.62054      	145.12889      	139.48216      	131.97308      	126.22014      	128.63258      	123.13717      	118.62066      	115.79859      	101.008354     	85.163216      	86.091995      	84.74821       	77.26223       	
100.146935     	93.95073       	87.40459       	88.942764      	100.62961      	100.46929      	86.75871       	95.63477       	100.58348      	87.077034      	94.47348       	101.67501      	90.766914      	97.39471       	98.03197       	90.1548        	102.092896     	96.39982       	91.34471       	101.90568      	94.94716       	89.48935       	105.002205     	102.0146       	91.67664       	101.30379      	100.93851      	92.988205      	103.11178      	95.53526       	98.824135      	101.2731       	92.776115      	100.17623      	104.52025      	95.70833       	93.64056       	103.820755     	95.577835      	95.80232       	103.797646     	96.6267        	95.912186      	97.42392       	97.2401        	99.96894       	99.44978       	93.46111       	96.22792       	100.15291      	93.86154       	95.385506      	100.301895     	93.58868       	93.536674      	100.45004      	95.451416      	93.74821       	96.76824       	93.14551       	93.68311       	95.89128       	95.030426      	96.09449       	90.39796       	87.3462        	100.273674     	98.83211       	87.65972       	98.22226       	98.702896      	90.37105       	91.35633       	95.531815      	95.740425      	95.01785       	90.76554       	95.49333       	100.29263      	94.61231       	95.46213       	101.84793      	100.11787      	114.726105     	129.8939       	136.97534      	140.15341      	144.68105      	134.30008      	130.52887      	122.02003      	123.28219      	125.23558      	111.647354     	105.77738      	103.194626     	86.29444       	79.382645      	84.52345       	80.360344      	
94.63292       	102.2113       	100.825874     	91.62464       	88.82653       	99.141685      	99.21407       	90.13368       	98.82298       	97.55969       	89.78956       	95.94949       	99.67057       	91.55181       	96.44435       	97.05436       	89.62347       	100.4828       	97.560074      	90.40777       	101.19857      	95.36975       	83.87507       	108.88878      	101.07909      	88.44376       	106.31916      	103.141685     	92.04073       	103.350655     	99.84896       	96.25567       	106.26242      	93.298355      	97.8505        	111.0583       	95.4279        	94.543594      	108.51188      	98.065216      	95.0896        	105.17371      	99.67469       	94.33655       	100.48686      	99.83216       	100.75994      	102.11545      	93.27127       	101.0454       	100.34567      	95.00281       	96.90811       	104.24272      	93.66154       	95.26978       	104.28813      	94.8134        	95.3973        	96.35681       	93.71225       	97.158646      	95.80291       	93.22843       	98.703476      	95.63481       	91.674545      	99.525925      	97.98808       	92.271515      	94.02772       	97.43128       	92.75947       	96.08349       	95.49044       	93.65988       	94.44965       	90.160416      	95.195366      	97.52308       	97.8289        	96.5839        	97.39605       	107.55272      	115.73117      	125.15266      	130.33084      	132.67236      	126.832085     	121.336105     	125.28679      	121.88301      	120.28797      	115.77502      	103.19026      	99.3048        	93.934         	84.12471       	87.78033       	87.2462        	
95.49049       	88.5785        	88.824165      	93.03185       	95.57251       	91.59923       	91.464935      	93.09096       	91.15013       	93.14989       	94.13261       	92.092415      	91.23226       	94.07763       	90.620766      	92.644455      	95.522995      	93.181915      	92.54621       	94.267685      	93.016365      	94.872025      	94.51969       	93.15815       	94.48836       	94.11183       	92.91337       	95.90347       	96.174995      	93.077835      	90.61418       	95.13273       	94.42883       	91.083694      	94.20007       	94.76765       	91.29374       	91.870255      	94.63014       	93.37728       	93.89531       	91.30972       	86.472404      	91.83114       	94.681         	89.47118       	92.040474      	92.72395       	87.638306      	92.22244       	88.77328       	89.52924       	92.33524       	89.18086       	85.004715      	91.7129        	92.64637       	85.558136      	88.96491       	88.96107       	87.80114       	89.75107       	87.42012       	88.48718       	88.8991        	85.35493       	88.82696       	91.61484       	84.61858       	84.76435       	90.38392       	87.0361        	85.62793       	90.535515      	89.008095      	85.25855       	89.418785      	90.80098       	87.5927        	88.46611       	92.79072       	89.26234       	92.52979       	99.966255      	100.27412      	111.319176     	115.73743      	116.17313      	120.702835     	116.323296     	110.190315     	117.538666     	109.781494     	98.903         	102.75114      	92.897064      	81.4793        	83.81502       	79.54443       	78.944176      	
90.26131       	93.24166       	91.75054       	91.3936        	88.30012       	90.26753       	93.4367        	88.26306       	89.59492       	95.35148       	89.41252       	88.748245      	91.15081       	85.6054        	91.42196       	93.58245       	89.477875      	88.95063       	90.39001       	87.377655      	91.0691        	91.231415      	88.17137       	93.81977       	89.608315      	85.54342       	95.4812        	92.951164      	87.98522       	93.45973       	90.743256      	91.475845      	95.372444      	89.93815       	92.57507       	95.9796        	90.417564      	93.97603       	96.89905       	92.80309       	94.96806       	94.27772       	88.37818       	93.64502       	100.43216      	91.43372       	94.44949       	96.6091        	92.92535       	96.628975      	94.51737       	94.75107       	97.63158       	92.922745      	88.62359       	98.245926      	95.99365       	90.325714      	96.12807       	96.532364      	90.32054       	97.44569       	93.2841        	94.070404      	95.50928       	91.98359       	95.83406       	97.69983       	91.41646       	93.09949       	96.95055       	91.22073       	95.54914       	98.733505      	92.629776      	93.63766       	96.326324      	99.22154       	96.12711       	96.39003       	101.135506     	100.637        	98.74414       	100.570724     	107.69404      	114.93014      	115.05241      	117.84961      	125.37211      	122.78858      	114.44531      	120.22564      	119.46547      	106.165985     	102.94811      	103.67608      	92.86191       	94.82455       	92.7627        	87.20721       	
93.96647       	87.22514       	81.74166       	82.849075      	94.84668       	97.41872       	84.08654       	92.21296       	98.07047       	85.56093       	87.8341        	94.388176      	89.63881       	92.467476      	93.211105      	85.807526      	93.37685       	94.86834       	85.428505      	93.47831       	96.8003        	84.50005       	89.95434       	98.6676        	87.92363       	91.60513       	94.353676      	86.63409       	94.58175       	98.07202       	87.07772       	97.499146      	94.38805       	89.686646      	99.02379       	96.41093       	90.02331       	97.103516      	95.585785      	87.72389       	96.87963       	97.12581       	93.22838       	95.4169        	87.84779       	92.54732       	103.50692      	91.620186      	92.90885       	101.77988      	91.13105       	93.948654      	96.30847       	93.95368       	94.835335      	94.54355       	87.70018       	95.72327       	98.06445       	88.388214      	93.95273       	97.69296       	87.46769       	93.5183        	96.850815      	91.17569       	91.27939       	96.24482       	94.65733       	96.92516       	93.11235       	90.14507       	98.84398       	93.160675      	91.935844      	97.19499       	96.384964      	90.90137       	96.93108       	100.037        	95.45101       	98.21242       	100.440544     	103.412125     	100.95085      	104.34712      	110.20053      	116.066826     	113.75366      	113.72049      	121.199394     	114.78084      	110.01733      	109.70431      	103.20572      	99.62549       	102.701645     	97.39749       	96.00213       	87.42245       	
88.325806      	85.18973       	86.91729       	91.54888       	90.91155       	83.4104        	87.13178       	93.35469       	87.8811        	88.61544       	87.92876       	81.5628        	94.28947       	93.25692       	83.350845      	95.60782       	93.72121       	85.91439       	93.44887       	94.287186      	90.24825       	95.73536       	91.490814      	87.42126       	96.74211       	94.03297       	88.429535      	97.7278        	93.26027       	86.04255       	100.70687      	95.739136      	88.30326       	98.72557       	95.29447       	89.88611       	99.82744       	94.4661        	91.737335      	101.161415     	89.95714       	93.85582       	103.478        	89.160965      	93.87367       	102.41157      	81.263626      	98.058586      	106.211494     	84.755684      	98.547935      	104.04723      	88.40909       	96.7356        	98.96114       	88.3639        	100.617134     	95.35766       	83.850136      	102.23568      	96.3726        	85.68936       	98.59715       	98.05147       	85.370224      	100.63752      	97.804184      	87.82553       	96.69664       	94.837         	92.15628       	100.09245      	92.08653       	89.99592       	100.81483      	93.242195      	90.37446       	101.15698      	94.281136      	89.67501       	99.36657       	97.83186       	94.78327       	102.08683      	99.72673       	95.29789       	105.83093      	97.02974       	101.772934     	109.28792      	101.9337       	102.03955      	109.15144      	100.454666     	96.014366      	101.91257      	92.83945       	94.04969       	98.25795       	86.52605       	
89.69877       	96.58662       	97.19759       	90.24615       	83.003586      	91.437836      	99.16285       	88.47261       	90.83495       	95.21318       	89.09958       	90.55376       	97.73799       	88.83969       	94.91041       	93.56864       	88.195366      	96.1694        	95.503654      	89.136955      	92.82429       	92.81454       	87.7898        	98.71508       	96.02806       	89.23665       	95.489044      	92.74199       	90.55142       	97.362076      	91.48677       	95.39173       	96.49548       	89.83421       	95.144135      	98.802216      	93.59883       	92.85385       	95.473145      	94.71659       	93.578606      	94.70427       	92.59754       	95.07291       	93.81442       	93.06865       	96.50566       	93.29131       	93.10723       	96.726616      	92.41672       	94.00313       	97.677574      	95.38034       	92.0168        	94.55594       	93.788445      	94.312164      	94.11879       	94.328316      	93.966606      	91.15135       	92.01964       	97.11901       	93.66424       	89.85794       	96.21734       	90.49434       	89.441055      	99.805016      	94.073456      	93.02858       	96.490425      	91.240555      	94.43058       	95.10039       	90.09241       	96.25231       	97.25455       	85.98866       	95.830986      	101.8414       	90.34917       	96.02958       	99.79875       	96.89376       	99.489975      	101.0745       	98.055916      	99.39312       	98.04426       	98.820435      	103.430855     	96.04815       	96.77007       	98.84233       	95.38856       	93.88014       	98.39725       	90.24906       	
98.342865      	93.41975       	88.106766      	87.91596       	94.820595      	94.14715       	86.363075      	93.14985       	98.27564       	87.18998       	91.32532       	93.76164       	92.35555       	91.24565       	95.00307       	90.7537        	92.45357       	93.674675      	91.498886      	96.166176      	92.18678       	87.716644      	97.56621       	94.40636       	89.37487       	93.48544       	94.57387       	89.01216       	93.337776      	96.63699       	92.90332       	94.46346       	86.704216      	90.382576      	103.92944      	86.1715        	90.47213       	101.67326      	93.55527       	87.567375      	97.32552       	95.967026      	93.6949        	93.98143       	89.89808       	93.05327       	95.88578       	87.3607        	93.4214        	97.779144      	85.63824       	90.46175       	101.37479      	88.41728       	86.64682       	97.3625        	90.58625       	90.81137       	94.39913       	91.362305      	93.86919       	90.78303       	91.68188       	95.46046       	92.48082       	88.894806      	91.41158       	94.299965      	91.17984       	91.59095       	94.116455      	93.38733       	87.21703       	93.722534      	98.1596        	91.34004       	93.59858       	91.8092        	92.59885       	98.550575      	89.99901       	94.59113       	98.65001       	91.12337       	94.63004       	100.41503      	97.32995       	96.563835      	101.12556      	95.11518       	95.62308       	105.72042      	97.792915      	97.64526       	98.38954       	92.706184      	97.809395      	92.80244       	91.89586       	97.06882       	
93.63775       	94.09335       	94.54223       	95.186844      	94.68722       	91.76618       	90.444305      	94.99244       	96.08578       	92.79107       	88.75369       	95.711464      	96.60412       	88.15439       	92.833534      	98.28173       	88.30101       	93.228         	98.95726       	92.14769       	92.52794       	93.84865       	94.52662       	97.135735      	91.58268       	95.40966       	98.92011       	91.30196       	93.078766      	100.28343      	96.638725      	89.396194      	98.23287       	98.28433       	95.796196      	93.12315       	98.47184       	96.013954      	92.552536      	97.535484      	98.46878       	96.83603       	92.080124      	96.62239       	102.64161      	93.407455      	95.550255      	100.441574     	94.79688       	94.77775       	101.61598      	98.75355       	96.60648       	93.82947       	85.26031       	110.57289      	96.67826       	87.80942       	108.928604     	98.95213       	89.1702        	103.61927      	98.37517       	92.75314       	104.235565     	91.056114      	93.53057       	107.248375     	91.39818       	93.466255      	105.674576     	90.98646       	93.99771       	106.60821      	91.460846      	94.95316       	101.52736      	93.89985       	101.415215     	101.601814     	90.19567       	101.630745     	100.05142      	91.982864      	102.36459      	103.02945      	91.767525      	101.66264      	107.14827      	96.01872       	99.61426       	103.608406     	96.392265      	102.95882      	97.37222       	97.30141       	100.59682      	94.06365       	96.064         	101.29294      	
90.26151       	91.7421        	95.99147       	95.637695      	92.53419       	93.01404       	95.851234      	90.41261       	89.6401        	97.431404      	93.50127       	90.80523       	93.9003        	93.900185      	94.13777       	91.95505       	93.42309       	93.72981       	91.07625       	92.219734      	94.915634      	97.21461       	93.20782       	88.74458       	93.37914       	98.116196      	95.59032       	90.787186      	98.30974       	97.53748       	91.363235      	93.86513       	95.326584      	98.602875      	92.24781       	92.18951       	95.458694      	98.65492       	90.26489       	95.788864      	100.67229      	90.545845      	93.90983       	101.13521      	96.99068       	90.9026        	94.18827       	99.65724       	93.897514      	93.08975       	95.57976       	95.5868        	92.600174      	94.739655      	99.371704      	92.50296       	89.072845      	98.20838       	96.25196       	92.70972       	94.11999       	96.54257       	90.9541        	91.90226       	95.18654       	96.31295       	93.13578       	87.42258       	98.06065       	95.02072       	86.90624       	93.25256       	95.82084       	89.99393       	90.721085      	95.85456       	91.637375      	91.03144       	91.81203       	92.01887       	95.51547       	92.904175      	91.67985       	93.244644      	90.37523       	95.73408       	97.284515      	96.72815       	94.91026       	93.166046      	98.276054      	94.790276      	91.30187       	99.59333       	94.34331       	89.07308       	96.47526       	97.423416      	92.11881       	90.65478       	
98.32777       	91.164764      	87.23785       	91.30512       	99.74329       	97.60824       	85.69766       	95.85084       	98.699234      	91.217926      	89.114655      	97.141815      	95.18539       	92.413895      	94.48783       	93.13277       	95.04986       	93.682625      	93.4698        	97.059364      	91.99707       	88.29274       	98.38178       	93.387695      	89.54146       	93.87369       	94.19123       	91.34516       	94.380356      	94.81719       	93.961754      	93.210815      	89.76742       	99.33697       	97.21159       	87.44552       	96.846634      	96.089264      	87.88972       	92.42834       	97.11141       	93.624985      	91.337524      	85.32333       	92.405235      	102.0274       	83.230064      	92.3099        	100.83248      	87.151474      	87.850105      	98.48018       	90.76843       	89.82529       	94.77332       	86.26606       	94.19328       	95.59897       	86.54769       	96.719246      	97.26647       	82.994705      	95.85285       	101.32157      	85.06424       	94.35762       	94.75396       	84.80653       	95.66354       	92.026985      	89.469536      	95.15417       	90.50888       	87.69988       	98.23598       	93.44789       	88.21847       	95.49684       	91.16572       	91.83021       	94.84931       	92.85939       	91.12009       	95.58504       	89.60235       	93.30779       	100.0299       	94.3352        	94.965195      	96.05126       	92.66027       	99.83259       	92.773766      	93.7956        	97.39596       	92.07665       	90.96683       	97.994705      	94.856735      	91.62676       	
94.88563       	95.053314      	93.68533       	88.866936      	91.31519       	99.83194       	93.80394       	85.060074      	95.42232       	98.320816      	89.19827       	88.802376      	96.335495      	92.91959       	90.56597       	93.02748       	94.828575      	91.60418       	90.50469       	95.106476      	97.35422       	91.653984      	90.1101        	95.70289       	100.05584      	87.64379       	94.38425       	99.6818        	91.14676       	89.67652       	98.872604      	97.11885       	92.05636       	93.51297       	94.29117       	96.7819        	94.2414        	93.32486       	97.97724       	88.23778       	86.10137       	104.39733      	96.88924       	87.710945      	99.849525      	99.821465      	91.220955      	95.1823        	94.872665      	98.0188        	97.08073       	85.59264       	97.12581       	103.15043      	89.09038       	92.85289       	100.86129      	93.29328       	90.41375       	100.21998      	94.781425      	91.046036      	93.20946       	97.61797       	98.183716      	89.649895      	91.8675        	101.405525     	93.765625      	90.74431       	98.097725      	97.220535      	88.952225      	94.741776      	100.23827      	94.2112        	90.31566       	94.8381        	96.423004      	94.313034      	87.70091       	97.20332       	96.218544      	87.81437       	95.492546      	98.818985      	91.95352       	91.842125      	95.148125      	98.30988       	95.02516       	96.85249       	92.85112       	98.18588       	95.748695      	94.2318        	96.42481       	97.390366      	91.48512       	94.99576       	
102.09712      	101.53638      	95.90717       	92.86053       	98.68949       	106.22778      	99.186165      	95.30144       	101.8874       	99.2482        	97.22675       	103.95594      	99.29585       	99.59549       	100.62333      	99.76061       	101.36795      	103.79002      	97.99611       	98.0697        	106.0381       	101.95865      	99.78691       	103.11201      	103.633705     	98.12184       	100.39281      	105.45551      	101.079094     	102.40473      	94.771614      	98.86584       	108.19722      	99.43579       	95.70891       	106.61081      	102.32923      	96.05523       	101.071945     	101.485466     	101.94062      	102.436966     	94.27916       	103.10062      	104.25761      	97.13321       	98.42244       	107.848335     	94.89476       	96.468864      	109.43253      	96.417694      	92.07033       	103.20621      	102.044304     	93.15526       	101.31601      	98.59665       	95.9157        	100.61348      	95.52656       	101.91582      	96.973885      	88.08525       	101.089935     	100.93263      	90.326         	94.332306      	101.464645     	90.479324      	93.639496      	98.72911       	91.1819        	94.220894      	92.60993       	94.95333       	99.84872       	95.25483       	87.0054        	91.58653       	103.856316     	90.680435      	93.990585      	102.00806      	94.63571       	92.27797       	97.87265       	93.68786       	97.1173        	100.35362      	91.492226      	94.18989       	99.27161       	92.089264      	94.15984       	98.930214      	91.062454      	92.49814       	100.47462      	94.86998       	
95.74614       	97.785515      	101.34895      	100.531136     	96.538666      	97.938705      	98.672485      	97.22423       	104.14375      	100.048546     	91.32874       	104.99034      	104.5806       	94.09856       	98.73542       	108.38065      	94.8551        	97.19599       	104.82726      	96.17692       	97.624756      	98.03073       	95.82586       	103.51802      	98.88054       	91.93315       	92.85976       	101.38387      	95.19454       	92.19519       	100.57502      	93.58345       	92.54589       	95.707695      	91.936325      	92.03158       	97.320076      	90.68886       	88.61653       	96.49681       	93.41347       	91.19659       	95.41075       	93.01847       	91.365204      	93.23805       	93.84388       	93.68415       	94.42086       	90.778336      	92.83642       	100.085464     	90.30081       	96.352         	98.51308       	93.15502       	96.00749       	100.36839      	99.07403       	95.22395       	97.896225      	102.061844     	100.049805     	98.43892       	99.84337       	103.66368      	99.5253        	99.77137       	105.15308      	105.45207      	100.28085      	98.200455      	105.90626      	106.97691      	103.13867      	105.836845     	106.67057      	104.271        	104.37488      	105.95766      	108.02809      	106.62472      	105.0466       	103.93889      	107.247185     	107.024765     	105.356316     	107.75174      	104.53566      	105.051636     	107.53786      	107.55086      	102.84896      	107.59323      	105.54781      	103.71552      	108.408005     	101.272        	103.68039      	105.635086     	
85.0573        	86.06629       	87.9554        	85.84368       	80.48599       	90.80736       	96.20203       	82.8382        	87.80664       	96.42569       	85.989265      	86.29265       	93.30946       	85.1156        	91.52263       	91.89849       	82.06685       	93.26952       	93.77807       	82.28964       	93.39894       	91.48878       	82.89896       	94.26757       	93.6279        	85.37422       	93.01887       	91.063545      	87.79811       	96.5027        	92.38302       	84.46155       	97.96834       	90.156364      	88.894684      	94.94945       	92.11447       	86.390205      	94.52556       	94.08707       	88.52136       	93.16243       	91.72482       	89.58191       	96.901054      	90.98534       	91.134735      	95.36171       	87.56006       	91.638306      	94.860504      	89.38787       	91.06273       	90.94056       	88.95585       	92.24571       	90.22597       	88.69471       	93.770905      	86.96381       	87.21657       	95.33529       	90.66565       	89.013145      	87.63774       	88.11291       	95.920944      	89.69701       	87.64403       	95.2635        	92.11134       	85.761154      	92.07802       	93.68262       	91.61736       	91.67887       	91.23556       	89.74613       	96.35429       	89.05257       	92.15051       	98.193375      	89.512856      	89.80472       	99.6216        	94.59929       	90.74016       	97.049576      	95.15478       	93.116325      	98.95853       	93.423996      	95.716606      	96.0775        	92.18782       	97.9124        	99.196075      	94.93425       	93.80298       	97.270355      	
91.14035       	98.78602       	96.47182       	89.74736       	84.597694      	93.48778       	93.268875      	90.44707       	90.92232       	92.271225      	89.83946       	90.205986      	89.71928       	91.67578       	95.017876      	88.67667       	89.591965      	92.822495      	93.5714        	90.79818       	89.199554      	94.82061       	89.782455      	86.05854       	95.29388       	92.802536      	90.1766        	92.530754      	87.72957       	92.782745      	98.145454      	87.85587       	91.89249       	97.19569       	89.086426      	88.233574      	94.00534       	89.95295       	94.15101       	93.18666       	87.01179       	91.76301       	96.07256       	85.531         	91.90201       	95.673836      	85.93807       	89.198296      	96.62739       	89.51672       	88.41075       	92.371         	88.447075      	90.69207       	90.70004       	86.98506       	90.91887       	86.432655      	85.56097       	93.39819       	85.56526       	84.404976      	87.21488       	78.177925      	88.36366       	88.72487       	81.544136      	86.96385       	85.798904      	78.00021       	87.8925        	81.59619       	81.18861       	88.81735       	79.7666        	79.14464       	89.567986      	82.30097       	77.45135       	85.37855       	80.85634       	79.93306       	87.17713       	81.30291       	80.916374      	81.376434      	80.598175      	82.012856      	86.18935       	75.92101       	77.500565      	87.5284        	74.99376       	79.01612       	81.68234       	77.33489       	75.877335      	79.73386       	79.3108        	77.40068       	
98.11959       	93.82487       	91.877975      	94.48918       	97.08395       	93.40093       	89.56224       	99.71335       	96.53324       	90.66682       	96.56339       	93.616135      	87.71605       	99.301476      	93.24367       	90.09345       	98.142006      	93.02666       	90.051216      	96.566986      	95.23462       	92.805336      	98.46933       	88.75335       	90.56515       	106.28865      	88.506584      	91.91418       	105.29379      	93.27363       	92.9144        	101.32753      	96.78407       	95.85479       	102.43245      	90.810074      	97.56535       	104.335625     	91.297134      	97.75267       	104.43614      	92.7545        	95.369125      	103.38553      	95.62645       	99.38433       	104.33597      	91.00864       	98.35173       	104.554756     	94.95383       	96.99397       	105.91155      	94.30115       	98.572754      	103.135254     	94.28093       	102.4856       	103.629234     	90.99892       	97.20617       	106.077515     	96.03865       	97.9673        	106.76497      	98.09146       	98.9249        	103.72548      	99.70643       	105.420334     	106.922615     	97.8212        	103.26081      	109.87343      	100.37325      	102.149254     	111.2567       	103.043304     	104.47417      	112.95163      	104.84912      	107.37218      	110.820526     	106.51854      	109.07213      	110.59651      	110.44902      	114.02171      	114.93306      	107.01138      	114.206894     	116.31579      	110.662445     	113.01299      	118.595024     	112.01641      	111.281334     	120.94321      	114.13684      	114.06811      	
79.570816      	86.83963       	89.07527       	89.46505       	85.887856      	82.97721       	88.389565      	89.13028       	85.0756        	86.87033       	91.95232       	90.95623       	83.29759       	88.00727       	95.98144       	89.363754      	86.19296       	93.56941       	93.511826      	87.15522       	90.399574      	94.12776       	92.7553        	88.567345      	87.0294        	92.24122       	95.47863       	90.23791       	92.83228       	96.32545       	90.22509       	89.91283       	100.22286      	89.55179       	92.83238       	96.65665       	90.319664      	93.531494      	97.36116       	93.21603       	91.79019       	93.90455       	91.84404       	94.23364       	96.441055      	89.910515      	95.18075       	94.23711       	89.2968        	95.84998       	95.07635       	89.91798       	91.58626       	95.47328       	91.718254      	92.957146      	92.766754      	92.66854       	91.32325       	91.55809       	93.01613       	93.47323       	91.3258        	86.1796        	89.78625       	97.597916      	85.79955       	89.77696       	95.77039       	88.67398       	88.061844      	92.370155      	91.42529       	91.52389       	91.6855        	85.80415       	88.30676       	95.66634       	88.46148       	90.797516      	95.97249       	88.87838       	90.23388       	95.75569       	89.56519       	92.62423       	96.814926      	90.4753        	90.52413       	98.80973       	90.852         	93.15714       	99.12105       	90.506744      	95.64962       	100.18214      	93.05856       	94.110054      	100.27962      	89.136566      	
90.24421       	96.16337       	97.37404       	94.80578       	90.944374      	95.00609       	94.90893       	86.618546      	95.25617       	101.33696      	86.69196       	93.97789       	99.1028        	90.06082       	92.08409       	97.60393       	94.01794       	93.80392       	95.85939       	91.22607       	98.733345      	97.20671       	88.726494      	99.76229       	99.05925       	88.137886      	98.21762       	102.09118      	93.437874      	95.42281       	98.02878       	98.14316       	96.98148       	97.56519       	96.9651        	99.95424       	94.529755      	94.642525      	103.23013      	95.48007       	95.37208       	101.163666     	96.23099       	94.57177       	100.620255     	100.05107      	95.32425       	94.54037       	95.2612        	104.16878      	95.8326        	95.09513       	101.96435      	100.123375     	92.37299       	97.83797       	100.13158      	96.38049       	94.18502       	96.09886       	94.42631       	94.289505      	93.73401       	94.33146       	98.13545       	93.28612       	91.104355      	100.140144     	96.183174      	89.010056      	97.50695       	95.33139       	88.02503       	98.88257       	94.06896       	91.8379        	95.4262        	91.46461       	91.33951       	96.67341       	91.15856       	92.87682       	95.182625      	87.524536      	93.05545       	99.66535       	85.786545      	95.33496       	98.65803       	89.38261       	92.91863       	97.14073       	94.647285      	95.55726       	94.11498       	89.8358        	96.1129        	98.952065      	89.03879       	98.531334      	
99.323616      	102.11002      	99.58961       	96.28703       	93.9883        	97.43594       	97.1293        	99.51498       	97.88952       	97.43587       	99.75597       	99.774345      	94.551346      	98.43169       	103.95663      	99.4273        	98.29524       	101.32256      	97.485         	100.88317      	97.04248       	98.826225      	101.00012      	96.474365      	96.511505      	102.9322       	98.83621       	96.17554       	101.06688      	96.47529       	97.53307       	100.01587      	97.92961       	96.58908       	100.32494      	94.86065       	96.00211       	100.76123      	97.08727       	99.658775      	99.61946       	89.89409       	99.18631       	102.20812      	92.329796      	97.03467       	101.13531      	93.95851       	94.6504        	100.24263      	94.31881       	98.86846       	96.68505       	91.74093       	98.63781       	95.80016       	93.34736       	97.27825       	95.316315      	87.94705       	98.793945      	94.149185      	90.93731       	96.308235      	94.39755       	92.49291       	94.75729       	94.72907       	91.15886       	94.03182       	90.34767       	88.57365       	97.130844      	90.866684      	89.41882       	90.51032       	88.151276      	95.445724      	92.772         	88.17364       	93.42542       	95.92858       	88.88309       	88.44261       	95.853676      	91.75279       	90.60885       	91.68321       	91.85136       	92.87641       	93.547035      	88.576866      	96.57211       	92.70354       	85.1385        	96.101814      	96.58431       	87.60625       	91.663315      	94.627525      	
82.412315      	90.766495      	99.84176       	101.224945     	90.5614        	87.58051       	98.007286      	96.82922       	86.89449       	95.108284      	95.02499       	92.24182       	96.64076       	88.62804       	90.28532       	99.68913       	90.49097       	91.45061       	97.09215       	91.88582       	90.67847       	95.70454       	94.69986       	88.62242       	93.23753       	94.98781       	93.412346      	95.04085       	89.26236       	96.01623       	95.35746       	94.01778       	94.61789       	97.163445      	90.18727       	92.6374        	98.54445       	94.23045       	93.29093       	94.37922       	91.42577       	96.314735      	91.89247       	92.641304      	94.85475       	91.723274      	90.22611       	95.39209       	95.128975      	88.74061       	92.59158       	92.95804       	89.351845      	94.77973       	93.30912       	92.169975      	90.53981       	90.89212       	93.61678       	91.03533       	89.65833       	94.14523       	90.7012        	89.230606      	93.689575      	93.999626      	90.83415       	89.77664       	88.90163       	94.76592       	90.56682       	88.64355       	92.17259       	90.56703       	86.758064      	90.1506        	93.86918       	86.95307       	91.06942       	89.93257       	87.13928       	96.746635      	88.4723        	88.584885      	97.35686       	90.08989       	85.7742        	98.477005      	91.81336       	87.81253       	99.62305       	86.67292       	85.34303       	106.60822      	91.43108       	89.760345      	102.98918      	92.02889       	90.49666       	101.86888      	
91.94893       	95.56869       	96.72972       	91.82838       	86.95489       	95.033295      	99.59539       	91.505646      	94.10376       	98.42445       	91.899254      	95.54085       	98.01175       	92.79843       	95.12645       	96.21704       	94.01721       	98.1516        	96.20808       	93.22753       	96.46636       	96.91108       	95.09554       	100.793335     	98.17714       	92.847626      	98.462265      	102.4845       	96.40166       	98.94723       	100.06042      	99.96931       	97.415665      	99.84676       	101.628265     	103.89323      	100.45423      	96.176445      	100.71485      	107.60582      	94.94136       	102.65379      	108.34786      	97.79748       	101.38482      	108.965546     	103.253136     	101.34126      	105.182755     	103.189575     	106.985        	106.69902      	104.17284      	105.718765     	105.22316      	105.23527      	109.20507      	106.2162       	103.47001      	104.52248      	103.148605     	107.30209      	105.81672      	105.54187      	105.48105      	100.56241      	106.70924      	106.283775     	101.973625     	103.17069      	107.6884       	99.39726       	101.66657      	108.09154      	101.71258      	101.70775      	102.64584      	101.6658       	104.409706     	101.69134      	100.77654      	104.17956      	100.538284     	98.46074       	106.27803      	103.20349      	97.96224       	100.07699      	100.76432      	102.45757      	103.17822      	102.03516      	101.36751      	100.51639      	101.3905       	101.227165     	102.06672      	101.539154     	102.37275      	96.577484      	
95.189606      	91.208405      	89.22232       	90.48677       	92.903114      	93.412056      	94.31827       	94.06772       	90.180984      	87.649506      	98.41341       	95.388565      	89.60196       	97.00644       	92.27466       	90.636826      	93.81729       	92.7326        	93.230644      	97.62577       	89.455986      	90.62389       	100.2151       	95.32406       	90.393875      	97.76282       	97.30094       	92.58171       	97.86756       	96.85693       	93.56446       	95.10723       	95.15632       	98.51915       	98.91564       	90.72215       	97.07724       	99.767815      	95.273994      	92.632164      	101.482994     	93.73343       	92.51595       	99.32055       	96.42272       	95.326096      	93.86869       	95.15386       	99.08385       	95.55903       	93.150505      	98.72806       	94.94434       	89.6388        	97.510796      	98.34632       	93.300835      	93.614746      	93.2509        	96.97011       	94.549355      	89.09018       	96.01317       	94.72816       	87.19675       	93.00012       	95.199615      	90.52607       	93.451416      	92.3211        	87.75064       	93.12659       	98.4123        	89.962036      	96.02113       	94.08919       	90.98804       	95.79774       	93.53446       	95.62633       	99.54224       	94.34457       	91.63781       	102.92966      	97.58309       	95.1638        	100.314575     	100.14375      	98.52844       	105.02996      	99.71655       	102.57549      	104.347336     	100.69722      	106.63696      	106.71152      	101.40152      	106.18457      	106.682816     	105.49537      	
93.332405      	91.90187       	94.097885      	97.84168       	95.311295      	88.85573       	95.13239       	98.764366      	93.08837       	93.42742       	91.755295      	95.808075      	97.84457       	95.08321       	92.597534      	99.02398       	95.91151       	89.25065       	97.49215       	97.466866      	94.74659       	93.14091       	90.38228       	98.77148       	96.095345      	90.960976      	95.34342       	99.17952       	90.51099       	95.2897        	102.21233      	91.05527       	94.41731       	98.12532       	94.13347       	97.18556       	98.17497       	92.08686       	92.37727       	100.02953      	93.42278       	95.59082       	96.99023       	93.438675      	96.5094        	93.84286       	90.46552       	95.27966       	99.05433       	88.44774       	89.988335      	100.795654     	91.74305       	89.67423       	95.913864      	94.49521       	88.25383       	91.50953       	94.30347       	89.845055      	91.92973       	88.94043       	89.86754       	88.11963       	87.18424       	91.89617       	92.547516      	85.67448       	85.5309        	92.92599       	89.099655      	84.874985      	91.14577       	89.47362       	83.89167       	88.762764      	91.69357       	85.92838       	87.32673       	86.02401       	80.707756      	96.1117        	89.58123       	83.466484      	95.85978       	89.35401       	84.02063       	93.46313       	88.48238       	87.29548       	95.92844       	85.782524      	86.94211       	99.36728       	87.29212       	88.33751       	98.121086      	85.097084      	90.58178       	98.14694       	
89.94341       	92.05746       	90.061905      	87.11931       	88.97973       	92.01341       	88.12719       	88.257484      	91.40931       	84.356865      	90.97379       	93.72624       	86.0208        	88.24046       	90.633575      	88.10645       	88.83314       	89.80638       	89.1176        	90.27835       	83.33702       	90.93861       	96.7374        	86.29018       	90.36253       	94.09005       	89.187         	88.93974       	94.67508       	89.63042       	94.408554      	91.98055       	86.5951        	98.69919       	93.432175      	89.01266       	94.97868       	94.44478       	87.859665      	95.286674      	94.465324      	91.00602       	94.247795      	92.000824      	93.61076       	93.55205       	89.57133       	91.07055       	92.82497       	88.63281       	92.54094       	98.10282       	88.51451       	87.6101        	98.7463        	89.56572       	88.04388       	91.4185        	90.329025      	88.91591       	88.48234       	90.27461       	90.70119       	91.16781       	84.3086        	83.56491       	93.2065        	89.77107       	87.13742       	93.33395       	90.698326      	87.3942        	91.11088       	91.03113       	88.39249       	92.22403       	89.90087       	86.97941       	91.42229       	92.317764      	89.23485       	92.97554       	91.24707       	86.34274       	95.573685      	92.9782        	87.41638       	95.30144       	94.60067       	87.62785       	97.14476       	96.94775       	93.61645       	97.57199       	94.33519       	93.4919        	99.12672       	93.36413       	91.58912       	100.99068      	
93.7903        	96.21488       	95.525116      	92.51167       	92.28514       	95.75619       	91.84994       	86.39427       	99.91077       	98.03502       	89.234665      	98.899506      	98.862946      	89.824425      	96.416626      	93.951096      	92.29286       	99.94059       	90.02935       	90.05397       	102.81174      	93.40654       	90.33855       	99.19134       	95.26299       	89.469574      	100.36075      	94.51994       	93.868355      	98.209305      	96.16139       	97.80594       	100.56371      	92.8637        	97.646416      	100.30395      	93.03426       	99.13635       	100.74537      	94.16309       	93.52064       	100.3517       	97.05169       	92.5467        	99.97184       	95.82359       	92.69715       	98.905876      	96.59164       	94.35404       	98.80875       	91.51221       	89.821075      	105.22778      	92.75835       	90.34399       	102.491875     	90.5228        	89.53076       	98.90288       	86.82104       	89.52056       	96.30525       	84.94119       	89.86776       	96.65166       	85.537094      	87.295006      	95.17453       	83.05079       	90.75108       	92.95607       	85.98709       	88.9797        	92.06812       	86.16002       	90.95641       	93.66928       	84.19091       	90.41987       	93.56346       	86.43361       	92.78421       	92.95808       	87.10974       	92.003265      	92.772896      	91.33991       	95.183334      	94.94746       	87.24775       	96.269196      	93.33039       	91.63608       	94.11551       	95.53474       	91.98781       	93.132805      	97.66163       	93.889824      	
95.53404       	95.56981       	93.000114      	90.69544       	93.0861        	93.47013       	91.1626        	91.27302       	95.23307       	92.311844      	92.83985       	95.127914      	86.84386       	87.62547       	101.13762      	91.69621       	89.79949       	99.6086        	93.40695       	89.40622       	97.01397       	91.461266      	91.98634       	98.94043       	87.708405      	91.31532       	101.59645      	90.975555      	92.57547       	98.27022       	92.100464      	92.78906       	101.2721       	93.12401       	95.03106       	97.32178       	91.73656       	96.50792       	96.71025       	89.73304       	94.708755      	94.78322       	89.78223       	93.65319       	96.36999       	89.69231       	94.53582       	93.25521       	91.433365      	94.28048       	92.85865       	91.68745       	90.09399       	92.770874      	93.98149       	88.421715      	92.56554       	90.861374      	88.60562       	91.93537       	92.10645       	90.543564      	89.04631       	86.797295      	87.76232       	93.35962       	89.08062       	87.31787       	93.20431       	86.7981        	86.32507       	94.85835       	87.42184       	88.02827       	92.781815      	83.83805       	86.30534       	99.32996       	89.042465      	90.081535      	97.53897       	86.34264       	91.44295       	96.082634      	88.18278       	93.1656        	97.20696       	86.1036        	95.83827       	100.11626      	88.539795      	98.63006       	96.44482       	89.5011        	101.80397      	97.65983       	92.65654       	102.04403      	97.657486      	93.27352       	
93.763725      	97.817314      	95.69722       	86.98209       	89.00492       	102.574776     	95.36035       	87.66505       	103.045494     	97.68555       	86.50789       	100.398544     	96.8517        	90.88189       	102.22131      	92.92133       	89.68705       	101.70004      	95.85495       	88.19643       	103.63379      	96.99094       	88.206         	103.3667       	97.268715      	90.94824       	103.32974      	90.759186      	93.781075      	102.024704     	95.188126      	99.72072       	100.144684     	92.69659       	100.382286     	104.43262      	91.464806      	100.66734      	103.196884     	89.6199        	97.28378       	105.817314     	92.73123       	98.861084      	100.7408       	92.51464       	99.65584       	97.27414       	92.32976       	101.625824     	95.887764      	85.99727       	102.14819      	98.37796       	85.862495      	99.268196      	95.465706      	82.558304      	97.75563       	95.23184       	86.93891       	96.78651       	90.040596      	87.03735       	97.33873       	90.14217       	89.170074      	96.49922       	87.772995      	89.23447       	100.05355      	88.72086       	89.77365       	94.87507       	85.20643       	95.22001       	98.75542       	87.820175      	95.18395       	96.96008       	89.51372       	95.814995      	96.65644       	89.49513       	98.90805       	92.660126      	88.49365       	101.530205     	97.83247       	88.76588       	101.56909      	93.23173       	100.87946      	103.30612      	98.20673       	100.92264      	102.35498      	98.38963       	103.409676     	104.61423      	
86.904465      	94.37525       	96.5988        	93.68424       	88.22664       	91.932014      	91.6223        	88.66745       	93.97968       	94.93741       	86.23209       	93.51895       	93.4137        	88.9074        	95.0956        	94.62817       	88.32095       	92.57613       	93.41688       	90.909195      	94.55211       	94.06555       	91.25206       	92.78614       	95.47281       	94.20826       	95.32836       	93.82585       	93.707756      	96.715706      	96.601616      	96.68037       	99.992355      	96.33138       	92.75251       	97.38818       	98.97002       	93.060905      	96.3271        	100.34317      	92.66185       	90.78458       	97.08972       	95.81172       	96.48068       	96.055695      	93.07527       	95.45442       	96.02391       	92.61838       	95.86601       	97.337166      	91.48199       	92.44614       	100.09706      	92.67074       	89.83742       	97.666756      	87.10205       	84.960075      	101.76916      	91.87394       	83.920685      	95.19054       	91.56871       	87.08566       	91.641655      	87.1693        	90.601105      	94.77625       	81.87139       	89.43188       	98.98418       	85.15449       	88.3226        	95.348335      	84.41359       	87.43849       	95.34497       	90.78053       	90.64068       	92.80123       	90.89339       	94.003426      	96.3882        	87.59863       	95.03504       	98.46913       	91.339264      	97.61881       	99.30177       	94.88058       	99.11618       	101.59452      	99.70415       	100.770805     	102.42394      	98.00029       	101.68288      	102.16579      	
93.64912       	92.05726       	95.29692       	99.65584       	98.86059       	93.114655      	93.98132       	95.52401       	94.16394       	98.59319       	91.999664      	95.327194      	97.26144       	91.96896       	94.092896      	98.87515       	96.13105       	92.84058       	93.77615       	91.934456      	97.785225      	95.85485       	93.15292       	98.68803       	95.67744       	92.36898       	101.565636     	93.84624       	93.68712       	100.863525     	95.37574       	95.37743       	103.877365     	98.77393       	96.60461       	101.91662      	95.26331       	96.18173       	103.75439      	95.91808       	97.76416       	100.47159      	93.41843       	95.44125       	99.215225      	94.413605      	93.298836      	94.79174       	92.44617       	93.85851       	93.19413       	89.203445      	94.01639       	89.416664      	86.35281       	92.12859       	88.53995       	86.24376       	86.3569        	78.17125       	83.268234      	95.585464      	79.82687       	79.4445        	91.48709       	81.854164      	79.65687       	86.498375      	81.80743       	85.41198       	85.01823       	77.48996       	83.5419        	88.58068       	77.31428       	84.78962       	87.97867       	77.11144       	80.75037       	91.9077        	79.848305      	81.52446       	88.09795       	82.64257       	86.35469       	89.39534       	83.70496       	87.36974       	91.06646       	83.79972       	93.102         	91.43019       	87.442795      	95.89381       	95.89966       	90.75643       	94.74702       	95.29546       	88.90087       	96.634285      	
89.853966      	85.30699       	91.37233       	97.77218       	96.217125      	87.98457       	89.964836      	93.94092       	88.277435      	91.57076       	94.55348       	88.82191       	91.62227       	92.064766      	86.957306      	97.47376       	89.756355      	89.51799       	95.46441       	92.07663       	88.84335       	94.44221       	95.709526      	90.103264      	92.70093       	92.77492       	93.711945      	97.99205       	91.56886       	96.98227       	96.60002       	90.94906       	103.306625     	101.63615      	92.39678       	100.730064     	103.41983      	94.950325      	95.73376       	99.18932       	98.967865      	98.041595      	94.70846       	96.58422       	99.693436      	95.38022       	94.90644       	100.47079      	95.486824      	88.27479       	102.436676     	99.15353       	90.85465       	97.73371       	97.36966       	91.46081       	93.46077       	95.74516       	90.86626       	90.89365       	88.08104       	90.58346       	95.22778       	82.92477       	87.379524      	92.99967       	83.97635       	85.29216       	92.473465      	87.18753       	83.54017       	88.72725       	87.08687       	88.614746      	89.656586      	86.38306       	88.78724       	88.4709        	90.18925       	88.5362        	91.66035       	88.19128       	88.37592       	91.47865       	88.83467       	88.71424       	92.91769       	90.8376        	87.87305       	87.51378       	97.424         	93.434586      	94.97167       	98.05905       	94.75845       	96.90702       	96.30986       	98.17801       	98.91557       	95.96314       	
87.10014       	87.85243       	93.3343        	99.07823       	96.42814       	89.495346      	93.601105      	96.12915       	87.75015       	95.03619       	94.66485       	89.894394      	92.7184        	93.74616       	87.120346      	94.16174       	95.82829       	89.929146      	95.33731       	92.29819       	87.09814       	100.63646      	88.97499       	90.26387       	98.40754       	93.160484      	91.54587       	96.568726      	93.48753       	98.16387       	101.19266      	93.05773       	96.57905       	106.63368      	95.226654      	95.74215       	105.449326     	95.09584       	96.79555       	101.09596      	95.16988       	96.61654       	101.31489      	92.23713       	94.63486       	102.37585      	92.99499       	96.53563       	100.76784      	89.63469       	96.45051       	100.21151      	89.84651       	95.839005      	98.60289       	87.670006      	95.171234      	98.27573       	87.2139        	93.34897       	89.79268       	84.71814       	91.96407       	88.7094        	82.602745      	92.49516       	88.10664       	81.36181       	93.390884      	88.48394       	87.01705       	91.48648       	84.91342       	84.76568       	98.1766        	88.80976       	87.73949       	96.5127        	86.98896       	90.31327       	94.05905       	88.30212       	92.17017       	95.06372       	85.272896      	93.1732        	100.82417      	88.94577       	96.881195      	102.03545      	90.055305      	104.49676      	99.74295       	96.46678       	102.87367      	97.78392       	99.59742       	103.38472      	98.88393       	96.31297       	
92.433464      	95.182175      	91.466064      	88.94389       	90.55221       	91.6156        	87.38531       	88.316444      	96.269394      	89.15801       	87.50184       	93.88182       	89.700836      	89.246216      	94.027176      	91.81235       	88.55827       	86.15843       	90.87631       	97.92844       	88.81221       	88.88646       	97.20234       	91.276505      	88.52559       	94.963425      	94.962456      	94.48516       	93.00676       	92.784874      	101.35674      	97.389366      	96.66552       	100.23665      	97.0456        	95.12679       	101.55739      	98.32209       	95.88306       	97.26592       	97.60316       	98.41609       	99.15686       	93.66363       	97.52156       	97.31709       	94.6848        	96.73387       	99.59953       	95.41878       	93.19984       	100.5121       	96.65027       	94.29076       	98.0979        	92.55681       	94.42163       	96.75777       	90.191444      	91.52872       	96.27974       	86.56896       	89.28586       	94.83647       	88.33222       	89.660385      	91.4799        	86.51631       	94.11441       	90.84832       	88.1875        	92.80925       	89.12976       	84.472305      	95.21216       	93.70983       	87.67951       	94.66893       	93.05527       	89.499466      	95.06925       	90.19161       	92.21192       	96.22132       	86.67895       	91.09174       	101.65053      	92.790085      	93.27827       	96.646774      	92.48434       	100.588295     	100.15257      	99.26372       	100.04017      	98.74923       	101.14107      	103.40257      	98.48526       	97.71106       	
92.21587       	95.72981       	94.10622       	89.9994        	88.07401       	93.97142       	95.43597       	89.25244       	91.28303       	92.69249       	91.42618       	94.33693       	91.66021       	89.72693       	93.816605      	89.004196      	90.41115       	95.71684       	90.760994      	88.96308       	92.03787       	93.58444       	90.8393        	90.31005       	96.71867       	93.760796      	90.53401       	99.15803       	96.92691       	96.65527       	98.86211       	91.26756       	98.22873       	109.106606     	94.827774      	98.34135       	108.22598      	95.05561       	98.12767       	103.6949       	96.1871        	102.329414     	100.78441      	90.71765       	102.4771       	103.103386     	91.588425      	99.79328       	100.133965     	94.14721       	95.98443       	99.74987       	95.039345      	95.132256      	97.5738        	97.055336      	97.94585       	90.93653       	90.67611       	98.907585      	91.92409       	87.530045      	95.66052       	88.36015       	86.64164       	93.553955      	91.7542        	88.14159       	89.24682       	88.51078       	93.586464      	88.345         	89.217         	92.42056       	90.94784       	88.16346       	93.967545      	94.00815       	85.417206      	91.29548       	93.41781       	93.60379       	89.33819       	95.77482       	93.930466      	90.362076      	94.74195       	95.49364       	99.392075      	91.3203        	91.398125      	102.8591       	100.773186     	94.98373       	101.877075     	103.7425       	94.91924       	100.49639      	103.39705      	98.98144       	
89.97305       	93.36577       	93.7209        	89.8709        	88.55895       	93.42626       	96.19067       	86.48174       	86.17941       	97.20479       	90.95354       	86.161865      	93.596054      	90.6222        	89.169136      	91.13311       	91.07619       	92.97363       	95.9207        	90.44071       	87.40842       	96.446846      	93.80078       	90.22132       	96.24385       	93.82506       	94.0004        	95.15424       	91.97557       	97.828445      	99.87161       	94.57697       	95.766205      	100.141075     	98.44661       	95.72293       	101.66397      	94.49972       	95.660515      	102.071365     	94.677765      	93.2297        	99.81534       	92.856255      	93.86452       	99.300446      	94.35982       	92.38716       	95.34594       	91.77105       	94.58096       	95.87326       	90.21872       	93.96385       	93.96306       	88.21767       	94.465904      	93.456406      	85.74822       	88.04342       	93.067665      	86.327934      	87.01048       	87.67311       	88.024796      	86.69511       	85.91532       	87.93151       	89.05234       	86.43159       	81.133286      	84.622795      	92.47277       	86.409134      	86.23204       	91.97383       	86.58488       	87.280846      	93.23783       	87.18908       	90.63239       	92.04911       	84.037025      	90.12947       	95.431114      	85.6147        	91.88101       	95.93387       	87.928925      	93.17946       	98.20712       	93.00329       	96.62101       	97.60434       	95.10928       	100.540764     	97.765656      	92.46764       	99.45061       	95.88423       	
96.221405      	87.49138       	85.541504      	88.15148       	93.22102       	94.728935      	92.46677       	87.24892       	88.03735       	95.557076      	92.6252        	84.596695      	95.410355      	96.51766       	83.78011       	91.02554       	102.24431      	86.818474      	87.36248       	95.75208       	94.30096       	89.36572       	93.201225      	94.589676      	93.29466       	92.855415      	95.69357       	99.689835      	94.37141       	93.24426       	97.76998       	106.478806     	93.83284       	96.269936      	106.98231      	96.43344       	92.498276      	104.18074      	100.85075      	95.24866       	98.90844       	92.80232       	103.13163      	100.55299      	91.87541       	100.07114      	102.73695      	92.73244       	94.88908       	102.43564      	94.07674       	97.93828       	98.038345      	91.30716       	98.77171       	96.136406      	92.22183       	94.29079       	92.562775      	86.693         	95.402626      	95.318344      	86.01448       	90.69969       	91.3765        	86.67567       	92.280876      	88.58248       	87.266525      	89.954865      	87.95954       	89.024765      	92.91652       	90.29269       	85.3009        	92.10251       	94.49191       	85.65215       	91.95769       	92.79496       	88.53465       	92.421394      	93.51193       	93.77631       	92.60179       	91.13498       	91.623344      	96.77385       	97.86902       	94.809395      	94.3317        	93.00316       	102.22917      	105.37444      	95.3867        	102.369        	105.57731      	95.79988       	100.66326      	100.43376      	
94.29317       	94.60175       	94.8073        	92.56414       	92.47713       	96.45665       	95.84864       	87.59916       	88.95759       	97.46207       	90.96913       	88.73824       	95.03785       	92.266815      	87.069756      	92.49072       	93.49963       	91.55623       	92.672966      	92.01379       	90.10324       	93.83697       	95.088905      	89.29081       	97.595055      	94.85676       	89.82171       	102.06294      	96.694824      	92.2454        	101.57541      	98.17685       	90.995125      	106.93161      	99.79651       	94.22564       	103.99193      	97.33324       	93.63269       	103.296844     	94.46822       	96.85343       	102.926834     	92.63789       	93.83206       	105.68314      	94.51739       	94.648926      	104.31886      	93.45484       	92.26867       	103.466995     	94.137276      	91.9133        	101.06328      	90.91849       	93.29438       	98.13354       	88.87702       	93.73327       	93.37092       	86.87198       	93.73392       	91.60481       	84.79383       	92.206795      	91.17753       	84.86158       	91.90358       	90.288605      	86.493935      	89.739395      	89.142685      	89.93395       	94.02295       	92.40633       	86.97258       	88.291245      	96.05419       	91.65797       	92.181015      	93.190216      	93.38062       	94.78026       	91.01895       	93.875725      	96.447105      	96.95877       	93.33133       	93.79256       	99.31498       	96.986534      	99.73694       	101.831696     	98.15838       	97.954636      	102.94812      	101.53621      	98.63512       	101.36658      	
101.1021       	88.73648       	87.293655      	94.3272        	100.45513      	85.02646       	85.556656      	105.834335     	91.81209       	87.15726       	103.025055     	91.134125      	86.533676      	102.77607      	87.76065       	92.71012       	100.90809      	85.360344      	93.26774       	102.888565     	89.158844      	90.777885      	102.26111      	89.91595       	92.32805       	103.11187      	93.75538       	96.74039       	97.17726       	97.672554      	105.68724      	99.26384       	94.995316      	106.36793      	101.99641      	95.855515      	105.62635      	102.954834     	94.44837       	102.36352      	104.11116      	98.087776      	101.52779      	99.05738       	95.53354       	105.79784      	93.98447       	98.45084       	103.84737      	94.34985       	96.49374       	103.642746     	97.42315       	93.70606       	100.5933       	95.44103       	92.517654      	97.21034       	91.784546      	90.42008       	86.423386      	86.01465       	97.73478       	85.46772       	82.67115       	93.42504       	91.70645       	81.990425      	86.47998       	92.46404       	87.34455       	84.56068       	88.5704        	88.138176      	90.29383       	84.51608       	89.47547       	92.80199       	82.45915       	86.01232       	96.27138       	88.31487       	83.027336      	91.59295       	94.77599       	86.40983       	92.10021       	92.828735      	94.20715       	90.941216      	90.78969       	100.30692      	95.52504       	92.23857       	97.41226       	102.87946      	94.91442       	95.31425       	102.82256      	94.89852       	
89.01039       	93.04663       	94.78983       	95.47789       	89.7808        	87.20629       	96.5673        	91.91718       	89.33344       	96.071045      	87.9619        	90.96927       	97.35505       	91.23345       	90.217636      	95.39281       	89.36525       	89.14255       	99.22102       	89.69056       	92.712296      	97.33348       	90.62439       	94.25905       	98.986465      	96.48498       	94.066475      	98.98641       	98.621284      	98.06918       	98.5925        	99.85312       	100.89593      	99.73125       	98.352585      	102.639046     	98.620445      	97.32141       	98.9555        	98.1092        	101.523285     	100.11644      	97.90275       	99.44884       	97.186226      	98.4294        	100.59611      	100.65121      	95.34467       	94.41068       	99.160126      	98.50379       	92.828545      	95.67086       	98.32731       	92.563194      	92.716835      	97.222885      	91.85976       	93.13402       	92.17459       	86.327286      	94.0623        	92.458984      	88.42852       	93.13184       	89.539314      	88.829796      	89.093666      	92.65984       	86.71846       	94.34465       	88.436066      	86.8586        	96.45419       	90.33044       	88.13463       	91.41116       	89.95273       	93.43331       	90.732285      	93.67719       	91.70433       	91.39989       	91.91115       	93.901         	96.94751       	89.9503        	97.31453       	95.29027       	93.57589       	100.39989      	101.19721      	96.18921       	100.851395     	104.099525     	99.777756      	100.455826     	102.384796     	94.43797       	
94.80404       	95.83454       	95.98735       	94.496414      	92.516         	92.26348       	93.42553       	93.157         	93.34636       	96.656364      	92.4756        	89.892685      	97.08318       	95.742065      	92.51489       	95.808975      	95.81841       	88.95928       	93.91682       	98.42426       	93.1748        	94.22999       	92.08237       	91.958305      	95.51763       	94.11335       	90.3806        	100.550186     	90.312775      	94.12078       	104.15515      	97.95159       	95.96251       	101.083824     	96.14554       	97.01264       	101.5266       	94.537384      	99.53224       	97.96381       	92.45909       	99.12064       	98.219536      	95.388756      	97.93249       	93.912544      	89.60196       	101.95729      	96.1199        	91.60326       	98.9349        	94.02307       	91.36443       	95.98445       	94.1503        	93.06406       	92.48294       	83.86655       	88.683464      	92.890755      	87.22244       	84.72926       	87.7756        	85.22452       	84.58383       	88.74107       	84.25964       	85.7229        	86.125336      	85.41069       	90.83479       	85.28666       	83.90278       	87.69742       	88.16615       	86.32719       	89.668686      	90.959724      	85.33546       	88.13986       	92.69177       	86.15887       	87.721565      	91.91002       	87.99533       	85.719376      	96.608696      	92.28651       	93.26594       	95.957726      	91.14228       	98.71095       	97.56782       	95.6175        	102.66544      	99.23518       	91.01866       	104.934814     	101.00539      	92.38954       	
87.19991       	96.156815      	90.713486      	86.75693       	86.55477       	93.41977       	92.85192       	86.71828       	91.46078       	92.67831       	91.224236      	94.488235      	85.42713       	92.52869       	96.730606      	86.86787       	91.98938       	96.571         	88.59005       	89.98005       	98.46087       	94.48632       	88.56799       	96.123825      	95.79743       	97.05032       	95.74817       	96.91891       	98.25282       	97.934006      	99.568634      	107.56376      	103.39289      	96.028244      	104.009834     	109.32792      	96.56144       	102.49539      	105.02813      	100.39677      	100.31666      	101.7685       	103.77165      	100.42885      	96.445915      	97.83867       	105.274704     	98.8084        	95.775635      	105.36385      	97.64209       	94.42839       	103.782394     	99.43408       	94.924065      	100.46537      	94.01205       	94.60743       	99.21544       	91.82323       	95.30537       	90.056404      	82.194084      	94.66272       	96.75005       	80.91338       	91.51826       	95.46337       	84.61181       	88.56855       	90.96532       	91.21925       	91.597694      	85.42407       	88.50971       	96.298615      	87.54066       	84.339         	98.17298       	88.43349       	82.02093       	97.31722       	93.94528       	83.51049       	89.43403       	95.90446       	87.85177       	94.05562       	93.69174       	94.42334       	91.70162       	95.30945       	101.37732      	102.876915     	88.73265       	99.7414        	105.55022      	93.18868       	95.00125       	103.5194       	
99.947174      	102.46053      	95.990776      	87.40103       	87.00091       	97.823         	93.41576       	87.419304      	95.76124       	93.66105       	88.38099       	92.82828       	92.58265       	91.78649       	96.09837       	87.01742       	90.55616       	99.11234       	88.82635       	91.246704      	98.81633       	90.40941       	88.24175       	97.435104      	96.523926      	96.15398       	100.20817      	96.144684      	103.413864     	97.28329       	99.49813       	105.56761      	101.663666     	98.848495      	105.43999      	102.434685     	97.392624      	103.194176     	101.74279      	98.94908       	103.19599      	101.66957      	98.17985       	96.87289       	96.60326       	101.21597      	100.92641      	96.66308       	98.4943        	100.91337      	94.92763       	95.62895       	96.16881       	99.14732       	91.82927       	90.829834      	98.336914      	92.63718       	89.10315       	90.75333       	90.52568       	90.57406       	87.62476       	88.38702       	88.85306       	86.66606       	85.01964       	91.438385      	91.950935      	84.318596      	88.66509       	90.472916      	90.184654      	88.05409       	92.37645       	89.64873       	85.900475      	92.28466       	91.78821       	91.15173       	89.56822       	90.163826      	82.893036      	98.510124      	93.71391       	87.24605       	98.756996      	93.479324      	91.99601       	98.33601       	92.99702       	94.67285       	103.660446     	93.73771       	94.05098       	107.90913      	96.79012       	96.25471       	102.309074     	100.934944     	
87.64563       	91.08629       	94.03402       	94.23711       	92.00432       	92.97875       	92.643         	89.76177       	93.269424      	93.241646      	91.231895      	93.64462       	94.656044      	87.521484      	92.761345      	97.82898       	91.84469       	91.461784      	92.239746      	96.166855      	93.11183       	93.12436       	93.57692       	95.21512       	92.44681       	93.71471       	99.942154      	94.8735        	91.74844       	97.8927        	101.40441      	102.08473      	102.47267      	100.33284      	100.606445     	103.75952      	99.80435       	100.36154      	102.1518       	99.46793       	96.71528       	103.422226     	102.76         	97.6555        	98.984985      	102.062485     	96.57337       	100.793755     	99.40398       	98.69119       	96.91753       	95.01877       	101.14029      	97.20832       	95.48316       	96.93428       	91.25675       	92.680466      	97.16607       	90.91867       	93.068146      	92.785484      	87.56916       	88.743935      	90.80268       	86.04933       	91.70187       	89.20436       	81.029755      	93.54452       	92.5758        	84.34068       	92.771576      	90.04402       	86.349014      	94.16493       	89.38719       	90.73741       	94.50904       	88.76384       	91.75764       	97.86253       	88.05395       	89.12062       	97.490486      	93.1494        	89.516396      	97.96852       	93.988655      	89.46105       	97.90201       	97.59516       	94.505035      	101.69967      	96.29276       	94.01062       	108.29591      	97.96121       	98.9049        	105.05992      	
91.45378       	93.38659       	95.3603        	93.75139       	93.3592        	97.28084       	92.17148       	87.318726      	98.79623       	96.84876       	84.918015      	95.1232        	96.65815       	88.10607       	94.5038        	97.020004      	90.986336      	94.54461       	92.72883       	95.25249       	99.46629       	94.97993       	87.0061        	98.66674       	104.407906     	92.482666      	97.42622       	106.52372      	94.03731       	100.33177      	104.60152      	99.844246      	107.40964      	105.27028      	97.13208       	104.44503      	105.83761      	97.50894       	103.42516      	105.18426      	95.83823       	101.1589       	104.79975      	99.08855       	98.92797       	98.84314       	97.88056       	100.67939      	99.48935       	97.42349       	100.62645      	96.96707       	96.45867       	101.573364     	93.88848       	95.59394       	96.8571        	89.692505      	91.28016       	94.11935       	91.64257       	88.09398       	85.05195       	81.52231       	94.7691        	84.58308       	82.98145       	91.218056      	86.49425       	81.56572       	86.47009       	89.30802       	87.498665      	86.96254       	82.545654      	90.80738       	90.89483       	83.838554      	87.84468       	92.898766      	82.46181       	87.79007       	99.015785      	82.36873       	85.94203       	94.80055       	88.68802       	87.80385       	95.12653       	91.59862       	94.96654       	95.77796       	97.18212       	103.12472      	92.585556      	93.72542       	106.72449      	96.712234      	91.876205      	102.4263       	
88.96672       	91.08505       	92.84014       	93.3698        	91.476074      	91.95552       	94.57388       	90.60201       	93.487114      	92.33707       	91.25008       	95.56006       	93.2363        	93.075836      	91.304276      	89.75427       	97.24401       	94.41696       	92.76122       	94.6678        	92.65404       	91.884445      	96.99561       	94.279976      	95.114655      	98.67186       	92.60591       	97.574936      	102.45423      	96.95076       	96.639175      	107.17848      	99.90752       	101.71864      	104.6257       	103.28081      	100.737625     	102.62456      	102.879745     	104.44528      	103.58865      	97.18987       	105.20292      	108.338486     	95.99661       	102.65489      	105.35657      	96.182816      	99.4987        	105.616875     	99.53105       	98.18332       	98.52823       	96.46443       	103.685616     	100.12523      	96.472786      	99.6886        	94.27204       	93.819595      	95.62719       	94.76722       	90.67095       	90.81764       	88.08961       	90.86453       	94.199455      	87.595055      	87.74071       	93.347         	88.53692       	88.22388       	92.15489       	89.85908       	85.7989        	90.26598       	91.23254       	91.31829       	92.7811        	87.892044      	89.52298       	97.37908       	86.356766      	90.99344       	97.22226       	87.874626      	92.35277       	98.44069       	92.9372        	92.1595        	94.72503       	95.05827       	102.63876      	100.24914      	96.29204       	100.34415      	97.54085       	98.81237       	101.18053      	99.08818       	
98.01254       	93.12831       	87.99257       	86.32885       	94.765205      	100.84594      	88.06474       	85.96778       	98.2086        	90.41361       	87.17857       	95.22822       	93.76933       	86.724655      	88.16211       	90.67261       	95.98519       	91.50689       	86.729805      	93.08647       	95.23567       	85.275955      	92.650116      	96.456314      	93.87031       	89.86339       	93.97074       	101.376175     	93.650314      	95.83415       	101.801506     	98.53615       	101.00724      	98.216545      	104.18969      	99.7777        	95.427155      	102.78676      	102.763275     	98.069176      	94.663704      	101.453865     	97.22131       	96.973625      	101.94185      	99.75595       	95.12828       	94.695915      	103.74891      	95.29394       	91.96483       	100.013016     	96.37936       	92.33763       	96.04481       	96.098755      	94.610176      	91.82308       	87.94005       	88.84435       	95.426895      	86.94368       	90.34671       	92.37129       	83.323746      	86.37854       	91.141525      	82.4452        	84.8615        	89.090706      	79.84309       	84.29147       	88.403694      	81.694         	79.63814       	83.88592       	79.3811        	83.01911       	81.1293        	81.0101        	82.054565      	80.67847       	82.20146       	85.31567       	87.40987       	80.07653       	85.74735       	90.12222       	90.3538        	87.87062       	95.493935      	92.7153        	95.39844       	99.47653       	102.37765      	102.80903      	97.68221       	98.38252       	111.10048      	107.01262      	
101.330536     	98.88341       	99.21574       	100.4198       	102.68226      	105.04871      	100.28181      	101.93855      	103.87685      	104.71225      	98.39505       	102.55912      	111.065834     	100.95577      	99.76218       	107.02414      	105.81557      	103.16655      	105.03906      	108.37169      	100.43957      	99.36974       	111.61511      	107.07738      	103.75563      	106.54536      	110.058174     	108.50851      	104.2917       	107.96567      	116.97093      	109.87025      	103.33534      	118.812485     	115.51875      	105.04274      	113.52352      	114.02216      	107.28812      	110.002716     	113.25581      	109.01529      	109.500336     	107.603966     	111.069145     	115.17978      	106.05824      	105.92687      	112.81109      	110.909546     	100.68458      	112.56038      	107.728584     	99.94438       	107.2931       	107.06267      	101.51861      	98.18774       	98.52751       	98.102         	101.38175      	93.525475      	96.249306      	95.10228       	82.02182       	98.2069        	95.49024       	85.246124      	92.94732       	93.862915      	86.28362       	92.29581       	87.84704       	89.77718       	94.54241       	82.97192       	86.19967       	98.25247       	85.45935       	83.927475      	96.51051       	84.70499       	85.092445      	93.64399       	87.9557        	87.17738       	90.406784      	88.24357       	93.160194      	96.395584      	86.291374      	94.4993        	97.1777        	89.22286       	99.12768       	97.69787       	91.25366       	96.70609       	98.65343       	96.047905      	
83.389435      	100.2259       	103.09696      	92.08416       	81.033905      	90.56726       	97.734215      	84.18148       	89.48353       	89.210365      	85.42327       	90.028404      	88.21761       	78.76431       	91.155754      	93.744576      	75.94746       	85.58601       	93.16356       	78.62275       	82.735435      	93.07464       	80.91761       	81.50986       	89.628174      	85.78064       	88.36606       	85.840385      	83.67179       	96.54805       	89.94292       	86.95893       	97.297104      	92.10878       	86.455925      	95.74948       	97.637276      	85.82518       	90.64009       	96.74517       	90.57696       	90.781586      	91.096176      	91.42834       	90.54206       	89.66572       	91.63997       	94.18636       	87.06544       	84.55157       	95.98234       	87.90011       	83.11555       	91.44742       	88.07575       	83.07588       	87.39952       	87.85225       	83.621         	83.176926      	77.26696       	86.556755      	84.29321       	70.93295       	80.95777       	85.056114      	70.40361       	77.0776        	84.82031       	76.320435      	75.60259       	79.48701       	75.38134       	81.93073       	79.5247        	73.80672       	84.59949       	78.13787       	70.01483       	86.75021       	84.31066       	74.623024      	86.470566      	82.36165       	77.03261       	88.68033       	80.1825        	82.60074       	90.589485      	80.36535       	87.192245      	95.306625      	84.90031       	91.00552       	94.17802       	86.42766       	96.87001       	96.41436       	91.08003       	92.83528       	
92.35873       	91.275635      	92.37154       	93.89323       	92.01421       	86.12125       	90.0536        	96.02855       	90.106705      	87.22396       	95.55978       	88.20118       	84.36309       	95.38161       	92.01047       	88.909096      	88.64483       	86.31025       	94.28665       	94.045586      	85.60885       	95.00638       	97.58192       	87.496445      	92.84619       	96.96903       	92.905464      	99.10621       	94.97606       	91.99898       	103.57549      	101.29805      	95.911415      	102.19152      	103.432175     	95.17772       	104.596085     	105.211464     	93.8031        	101.746124     	100.597885     	97.833664      	104.14849      	102.862686     	97.07          	100.37366      	105.37454      	99.495804      	102.76614      	102.4428       	99.257324      	100.99647      	100.25783      	99.072876      	102.71892      	100.0771       	91.26769       	95.388466      	99.79613       	92.34762       	93.43291       	98.113945      	91.10649       	89.66181       	93.0853        	92.064095      	90.34663       	92.21312       	88.59102       	89.941895      	95.43438       	88.72807       	91.408745      	95.63237       	86.281906      	89.25003       	96.74254       	89.86173       	90.56841       	96.24008       	88.5081        	92.16987       	96.13177       	87.721176      	94.25924       	93.893814      	84.17826       	99.64189       	98.72363       	89.76355       	101.31271      	94.12154       	95.71146       	102.606804     	94.53272       	98.01981       	102.65384      	92.174736      	99.03344       	104.81625      	
94.28015       	93.78889       	90.76466       	89.98992       	94.60446       	97.22966       	96.15882       	91.37535       	92.750656      	94.71236       	97.001305      	88.726204      	94.216446      	97.3801        	88.049736      	88.7841        	97.46404       	93.84835       	89.15877       	92.27882       	92.604774      	88.93808       	92.28386       	88.781456      	93.513885      	91.50799       	89.01489       	97.28139       	93.6992        	91.54074       	98.10433       	96.69524       	96.69383       	97.86034       	97.61596       	97.56368       	92.86604       	93.49544       	103.17077      	97.146164      	92.339775      	99.76009       	98.16964       	91.03276       	97.49487       	93.03883       	93.42459       	93.2389        	86.902054      	92.87153       	96.00985       	88.90347       	89.60015       	94.28017       	86.691536      	88.91987       	91.9705        	87.99413       	84.27281       	86.12162       	88.66211       	86.851204      	81.84485       	81.15355       	87.11189       	83.1597        	79.53104       	86.34376       	86.1977        	79.10037       	85.01326       	88.5452        	80.590904      	83.50988       	85.67045       	80.75589       	86.95024       	84.97221       	82.02989       	88.787994      	84.53075       	78.68103       	91.49588       	87.473755      	83.33939       	90.71434       	81.709076      	87.77131       	94.917854      	86.57852       	91.30394       	97.010735      	87.862236      	91.88041       	96.24008       	91.594765      	97.834404      	94.483635      	87.13416       	98.65963       	
102.96803      	91.47234       	87.38193       	89.79887       	99.02876       	95.4295        	85.97143       	95.58452       	96.59846       	87.551926      	93.73298       	83.482285      	95.78629       	99.202324      	84.26869       	95.30884       	99.571175      	87.07752       	92.79944       	96.56319       	91.73305       	94.7343        	93.793015      	90.31741       	98.676155      	96.53215       	91.1191        	103.33276      	91.66443       	95.56505       	105.15955      	99.511894      	96.263756      	103.95424      	99.685104      	100.947266     	106.72161      	96.40489       	100.633        	104.051956     	95.46675       	101.6221       	104.834305     	97.149376      	98.46224       	103.544586     	98.74212       	99.100586      	101.738884     	94.38797       	97.77668       	101.26967      	93.831894      	96.30229       	99.11348       	92.480804      	92.90993       	97.32165       	88.94572       	94.73768       	93.78566       	83.92139       	89.97956       	95.1936        	87.05855       	91.14291       	91.189384      	87.28073       	92.34638       	90.84422       	86.941864      	94.30002       	90.60693       	83.39946       	95.32441       	93.54297       	87.935745      	89.99149       	93.52223       	88.55767       	94.441         	91.31807       	91.39906       	93.811844      	91.23497       	93.988106      	97.43035       	93.20372       	92.75561       	98.42406       	94.384674      	97.80643       	100.768875     	96.67561       	90.4567        	104.98898      	104.6419       	94.42777       	102.68056      	102.83017      	
96.72474       	91.565346      	91.25452       	90.2942        	90.88439       	91.82842       	90.606026      	92.119354      	87.97114       	92.912766      	91.99586       	86.01652       	95.27956       	95.962715      	87.05017       	89.54442       	95.44383       	91.07563       	89.560425      	93.81046       	92.91668       	90.59994       	90.804405      	95.7367        	95.31603       	92.2873        	92.18598       	95.92611       	98.79996       	90.395386      	97.56094       	103.69191      	95.080826      	98.29154       	102.43022      	100.82962      	99.2216        	97.734604      	93.57039       	102.26628      	101.77192      	95.14727       	102.09999      	99.79837       	93.267525      	100.21411      	96.83776       	95.930695      	98.24443       	95.98448       	90.65266       	97.610565      	95.87916       	91.34533       	95.29244       	90.311005      	91.8909        	94.37947       	86.04036       	87.38746       	91.30118       	84.83004       	86.69059       	89.04711       	82.22852       	85.08162       	86.66407       	86.08074       	88.45922       	89.82563       	83.49791       	88.4235        	90.682785      	86.438644      	84.73637       	90.295074      	86.74621       	83.86637       	92.84008       	89.114975      	88.04865       	91.27461       	86.89946       	90.35751       	92.19597       	87.23637       	91.37355       	96.59429       	84.1389        	93.56544       	99.46742       	89.15441       	95.286934      	103.59117      	92.38565       	96.29159       	104.62676      	96.075455      	99.9785        	99.1768        	
97.84241       	91.81056       	88.31367       	90.40752       	94.28517       	94.796196      	88.03535       	86.38058       	93.47437       	95.46867       	87.84415       	88.87428       	92.26156       	92.891884      	87.3713        	89.775185      	96.044785      	88.37082       	86.37348       	96.79236       	92.96126       	86.866615      	94.57548       	92.65002       	91.20677       	94.91601       	92.720985      	97.96557       	90.80579       	92.48107       	103.300156     	98.19579       	92.61415       	100.816124     	95.80502       	96.70926       	98.92273       	96.96331       	97.781204      	96.68392       	94.377846      	99.01354       	97.90766       	90.903984      	96.218185      	96.61397       	91.932945      	97.22851       	99.57903       	91.20125       	87.13179       	99.04369       	97.29046       	89.52182       	93.827805      	96.60336       	92.49822       	87.87242       	89.690506      	91.98182       	93.747635      	84.41164       	86.39804       	89.45318       	89.21031       	82.585175      	90.50343       	89.462456      	82.09732       	87.89062       	92.974655      	86.29363       	83.85661       	90.54154       	86.13029       	85.853745      	90.07032       	91.24947       	85.58278       	87.75073       	90.749596      	91.19549       	85.77299       	88.98725       	91.6684        	88.384476      	88.680176      	91.43966       	94.79224       	92.0523        	87.86484       	94.91516       	98.51723       	96.62354       	98.31908       	98.08177       	95.68531       	97.52523       	99.88313       	96.20824       	
93.69034       	84.97432       	84.576935      	91.417366      	97.197754      	90.236626      	86.14385       	91.28597       	86.5724        	93.2626        	88.575226      	86.65842       	93.52283       	91.72852       	84.78411       	95.32112       	98.45447       	86.269806      	90.60355       	93.94995       	94.7559        	89.12402       	94.22016       	95.08058       	92.86547       	93.99499       	96.00081       	99.99141       	89.75472       	94.39867       	101.01558      	99.41849       	96.80219       	102.49         	98.099625      	95.07365       	104.12841      	99.70972       	98.1894        	99.76779       	97.30537       	98.20598       	97.62005       	97.162506      	100.187256     	99.05942       	92.06353       	92.91566       	106.35173      	93.23693       	93.42203       	103.23229      	93.247345      	91.8034        	97.8901        	92.318405      	91.60529       	95.10005       	87.37331       	89.728935      	96.02551       	85.29359       	90.65263       	90.83048       	81.26857       	86.213425      	95.18234       	79.771965      	88.35559       	93.05799       	80.992805      	88.651245      	91.65252       	87.18164       	89.16305       	86.79951       	81.96336       	96.46094       	87.470634      	82.03276       	95.982086      	91.02052       	79.63531       	91.29015       	93.19536       	85.79126       	93.42256       	89.32095       	88.940704      	97.56911       	87.41102       	95.48927       	101.16987      	86.82271       	95.584274      	104.95009      	91.3987        	96.14172       	99.60686       	85.456245      	
88.08774       	94.2565        	99.62845       	96.55763       	86.24459       	87.71117       	100.926834     	91.58129       	86.60765       	96.47658       	91.94397       	84.07356       	99.51219       	91.37497       	89.53959       	95.41151       	90.38118       	93.07134       	97.10624       	89.57689       	91.4123        	96.65568       	91.158005      	92.76648       	98.5653        	91.16357       	91.182335      	98.60632       	92.84018       	96.30528       	100.88123      	98.20802       	91.328964      	104.247955     	103.0267       	95.69184       	102.36182      	101.21264      	99.43791       	98.97313       	99.23214       	99.5441        	103.24539      	93.652626      	94.74605       	105.10518      	95.697395      	95.21835       	101.7578       	96.33792       	92.43611       	101.573        	96.17531       	94.94996       	96.77983       	92.82681       	99.12186       	96.2155        	87.56896       	92.32098       	95.25289       	87.38065       	91.67086       	94.22804       	87.36662       	89.67          	92.16243       	91.07515       	91.67671       	90.11799       	87.982956      	90.37021       	94.49252       	87.38763       	92.99369       	93.73189       	87.280014      	91.69137       	93.671005      	89.597496      	92.05628       	92.92704       	88.67552       	92.26041       	95.09352       	93.03142       	93.94124       	92.96253       	95.075066      	98.64723       	90.14676       	97.93581       	102.22984      	93.87142       	98.31538       	106.06078      	99.730064      	101.26692      	102.939545     	96.27447       	
95.22794       	97.1136        	95.24063       	90.93698       	91.287544      	98.44606       	92.93424       	87.32446       	99.082695      	93.2738        	83.89678       	97.988594      	97.87333       	88.27009       	94.168755      	96.40211       	89.78584       	97.197845      	92.671265      	93.98095       	97.05717       	91.2596        	94.36376       	99.346565      	92.13945       	91.8367        	98.55961       	94.77125       	95.432526      	101.23847      	96.022705      	94.833916      	100.82813      	100.72547      	95.85088       	100.1773       	98.1102        	97.649574      	97.51112       	97.15445       	99.87669       	99.71662       	95.308914      	95.07142       	95.01911       	99.30698       	97.507576      	97.83672       	99.89977       	96.50799       	96.867424      	97.73658       	95.70918       	95.25605       	99.33034       	93.5129        	92.64722       	97.32343       	93.01372       	91.5671        	94.990425      	91.28673       	89.49508       	93.90136       	86.39196       	90.69302       	93.13892       	85.95106       	92.83526       	92.42679       	88.91408       	89.41825       	90.23676       	88.27148       	91.98959       	91.03848       	88.295525      	94.58446       	88.79155       	89.90068       	95.24784       	91.11853       	89.520584      	93.440956      	89.46117       	92.877686      	98.22557       	94.12485       	93.75797       	96.648384      	92.95002       	97.53598       	96.457596      	97.36968       	100.75997      	97.24002       	98.956894      	104.05678      	101.08134      	100.67813      	
93.00196       	89.780815      	89.92665       	91.12447       	89.89314       	87.12683       	90.557976      	91.225296      	89.095055      	90.15813       	89.65013       	84.377686      	92.74483       	96.628784      	86.47771       	92.50142       	95.11738       	87.156845      	93.3734        	90.37271       	91.06056       	94.1549        	87.54981       	88.73516       	96.83577       	92.52171       	90.099525      	95.99637       	90.60046       	94.75582       	96.19828       	94.40746       	93.68703       	95.3405        	94.523926      	96.32741       	98.10042       	91.89052       	96.36176       	96.92911       	92.51087       	96.741776      	97.4661        	92.962036      	93.43312       	96.67545       	96.68236       	94.50555       	94.44911       	95.91284       	91.87282       	91.926285      	96.102036      	93.83093       	91.66478       	93.72427       	87.62237       	91.93873       	94.081696      	87.61202       	92.61128       	91.86471       	85.6075        	92.00049       	90.45064       	86.31083       	89.99035       	90.34289       	80.29947       	91.82064       	95.42327       	81.81068       	93.669846      	91.944786      	83.88435       	91.59648       	91.46282       	83.363556      	95.57113       	89.426926      	82.4821        	98.34391       	91.73908       	86.094315      	94.82252       	91.37116       	85.17513       	96.914474      	89.50701       	90.01634       	91.896416      	86.660995      	91.05586       	97.53956       	89.014595      	91.87761       	97.64422       	96.08027       	97.73929       	101.53251      	
89.733406      	97.84146       	99.19071       	90.8908        	85.26991       	97.34238       	98.49379       	85.64601       	93.45769       	93.66385       	85.01906       	101.09804      	94.88203       	87.18079       	99.50257       	95.553055      	87.02896       	99.70048       	89.6707        	91.08241       	98.0311        	87.55757       	90.548386      	102.309235     	92.39974       	86.81981       	99.61616       	95.910774      	85.16008       	97.1955        	92.979805      	90.43456       	96.49986       	93.80641       	96.02523       	96.80767       	90.42824       	96.13026       	102.94217      	89.46463       	97.93444       	99.98523       	89.33086       	94.716225      	100.28136      	94.54692       	92.83114       	96.599075      	93.267265      	97.19356       	94.385735      	93.140755      	97.08156       	91.61154       	90.89143       	97.85821       	93.248085      	88.75098       	94.54959       	86.33324       	96.4144        	101.96469      	88.69958       	93.90898       	96.56506       	87.28856       	93.1366        	95.16098       	86.2744        	95.149345      	92.19351       	83.76153       	97.64284       	94.745476      	87.07182       	93.0981        	93.63687       	85.586494      	96.10839       	90.51336       	87.61645       	93.46181       	89.664825      	91.79691       	95.12328       	88.11602       	91.4139        	96.56241       	91.66708       	91.0782        	98.63363       	93.172905      	91.28956       	99.88248       	95.44132       	89.94201       	96.8851        	93.803505      	95.752884      	100.389595     	
99.74376       	102.0049       	98.594925      	93.01741       	96.15123       	101.90551      	91.78624       	91.03125       	106.743744     	94.36012       	94.69759       	103.75333      	97.29489       	94.34398       	99.424736      	97.620926      	97.35584       	100.73909      	93.41114       	94.761925      	106.15565      	93.0257        	98.34283       	106.37117      	93.4144        	94.79611       	108.56229      	98.2306        	96.63569       	106.02434      	95.417465      	101.084885     	107.26196      	96.879074      	103.15299      	103.38054      	92.33951       	101.77357      	105.47083      	95.66326       	100.37182      	101.745964     	95.15423       	104.59753      	100.98199      	97.249596      	102.88138      	99.84521       	96.043816      	102.580826     	100.19099      	98.57392       	103.77882      	93.70829       	93.07519       	105.62698      	96.22875       	92.32246       	101.860886     	94.95399       	91.18982       	96.80208       	94.18271       	93.99638       	96.09406       	89.78636       	91.80795       	99.76944       	89.09492       	92.42562       	99.18549       	88.594894      	88.935074      	100.429596     	91.56294       	88.69404       	99.37838       	88.58434       	89.94962       	98.67927       	89.78724       	93.2662        	97.11067       	87.003784      	95.75768       	100.31361      	84.58255       	96.035576      	99.322754      	83.64094       	97.90907       	100.43453      	87.79998       	96.16579       	93.23748       	87.4868        	102.77794      	91.418945      	86.45399       	105.40498      	
93.363976      	87.42513       	86.75705       	90.25227       	94.042496      	89.062256      	85.87052       	90.85261       	87.61516       	87.50145       	92.36773       	86.8306        	86.42897       	93.35404       	87.91877       	86.80521       	93.408005      	89.210556      	85.01591       	91.35222       	91.41065       	87.2104        	90.40845       	89.306206      	86.715         	90.5231        	90.51013       	87.92082       	92.113686      	89.005325      	80.63554       	98.709114      	95.753654      	83.50305       	97.343636      	97.16187       	86.635796      	92.29914       	93.311455      	90.24452       	93.28687       	89.40946       	85.62094       	95.82649       	88.95459       	87.57177       	96.4883        	86.22032       	87.245224      	94.64432       	91.07999       	84.70234       	93.9153        	88.80347       	87.26928       	93.88286       	84.69589       	88.0643        	91.24291       	83.81027       	91.20627       	91.36955       	83.23014       	85.25164       	91.71415       	87.48217       	85.33834       	89.879875      	88.27257       	84.1617        	87.479774      	90.572075      	87.71676       	89.21997       	86.075516      	86.9547        	93.03698       	87.72212       	86.97018       	93.29233       	85.271126      	84.944305      	90.434204      	89.94392       	86.93254       	91.95619       	88.43387       	86.89754       	91.39202       	90.24539       	90.12963       	93.55929       	90.33278       	88.08975       	96.67333       	94.75876       	86.34073       	98.590385      	92.38775       	85.24084       	
95.418594      	97.47685       	94.28056       	90.62008       	94.54725       	95.291214      	90.57497       	93.57177       	94.15767       	91.668304      	91.912506      	95.15369       	89.43875       	89.094         	96.66151       	91.296234      	93.66234       	94.34588       	88.42419       	95.22694       	94.6565        	90.74604       	93.9181        	97.35301       	87.89086       	91.70768       	100.52912      	90.57284       	96.345345      	95.124954      	87.01449       	98.661995      	99.65904       	87.02738       	96.59053       	101.048134     	88.68178       	95.2489        	97.444695      	93.32823       	96.35669       	94.30213       	91.16523       	95.87932       	96.44915       	89.57598       	97.75757       	98.79989       	89.53737       	96.78759       	99.85992       	91.99243       	95.8463        	97.48786       	90.38456       	95.70333       	94.82133       	90.59221       	95.687614      	89.93725       	88.59297       	98.86585       	88.82222       	88.45707       	97.2173        	88.074165      	86.29787       	102.303154     	92.21672       	88.09382       	97.656586      	89.10437       	91.31637       	94.762665      	88.140274      	92.69705       	95.70147       	83.237656      	92.475334      	99.682236      	85.67553       	92.398         	96.74281       	83.31947       	93.76596       	95.17665       	89.665764      	93.54371       	94.13063       	90.704636      	95.682816      	96.34066       	89.25385       	98.675575      	95.16397       	88.764854      	101.04701      	97.245865      	89.28504       	95.042404      	
94.29748       	89.155624      	94.71551       	99.887695      	97.332634      	90.092896      	94.48376       	97.91041       	90.10281       	90.892975      	96.191315      	93.408646      	90.07801       	94.654106      	93.56861       	90.90807       	92.34642       	96.77026       	93.66316       	92.745346      	91.90636       	87.14417       	96.70533       	95.06808       	87.90878       	96.61629       	93.965004      	87.0098        	93.38712       	95.91755       	90.2961        	95.51294       	95.01282       	88.186554      	96.69614       	95.636734      	89.00171       	96.811935      	96.66568       	87.86808       	96.20151       	97.34913       	90.60406       	98.31888       	94.17781       	87.32272       	97.035904      	101.29851      	89.27335       	98.1715        	98.020515      	88.53161       	96.099106      	95.08702       	89.95857       	98.04727       	93.31324       	86.55432       	97.46215       	94.85592       	87.681915      	97.62464       	91.6398        	84.59952       	100.10896      	91.15494       	87.92004       	96.88489       	91.81589       	88.386         	95.44656       	92.255745      	89.00671       	96.291756      	88.44479       	88.61728       	97.95748       	90.15113       	91.5813        	94.7504        	89.641846      	91.038765      	97.956535      	90.053055      	92.231575      	97.15606       	87.817154      	95.18106       	96.446         	92.64111       	96.399345      	94.20466       	89.43295       	97.63204       	100.023964     	91.3658        	98.33112       	97.95085       	92.461235      	97.31022       	
91.0228        	91.8224        	92.94821       	95.81348       	95.80172       	91.56646       	89.28931       	93.79206       	89.52217       	92.94528       	93.24329       	93.52527       	90.55622       	89.835976      	94.14066       	93.09998       	89.39335       	90.42867       	94.44012       	87.64711       	87.392006      	95.50819       	92.367096      	92.08276       	92.965996      	90.01798       	90.52051       	94.96075       	89.14506       	93.02658       	95.67619       	85.82726       	90.19339       	98.512924      	91.04676       	91.88372       	96.80257       	88.458534      	92.179596      	95.03166       	89.042915      	93.6973        	95.81812       	85.90777       	91.77246       	98.49333       	87.021576      	95.322914      	96.331535      	85.37483       	92.816246      	99.720474      	86.11691       	94.3007        	96.48564       	86.65135       	93.85051       	93.01803       	88.1891        	94.325455      	92.206665      	86.98891       	92.758865      	92.61178       	86.31983       	94.74803       	89.144516      	80.720146      	97.090805      	93.78451       	85.75847       	97.47027       	94.14013       	88.153915      	92.35521       	91.45116       	89.78731       	97.4593        	89.402275      	87.489975      	100.13872      	90.0776        	89.142365      	96.03649       	91.64578       	85.80565       	98.57667       	91.17657       	89.93316       	94.81844       	89.852295      	94.29918       	96.42801       	91.11899       	93.03813       	96.83658       	92.58055       	94.30115       	97.34602       	92.49156       	
96.99239       	90.53087       	88.49401       	92.40534       	97.30183       	92.505875      	87.07288       	93.92498       	94.49093       	91.17329       	97.40642       	92.67931       	87.44333       	98.80917       	92.89331       	89.76462       	96.23392       	95.35575       	88.12089       	96.64213       	94.32885       	88.962036      	96.031166      	92.14761       	89.643906      	94.960625      	92.57978       	92.9028        	97.39476       	88.92958       	87.12183       	100.480515     	95.55501       	89.148155      	100.30009      	95.21308       	90.33601       	95.29642       	93.852036      	95.91957       	96.19963       	91.49284       	93.042984      	98.46171       	94.64727       	91.809944      	100.7644       	92.93755       	88.39841       	99.36137       	95.47722       	91.00346       	96.2651        	93.257515      	90.24116       	96.78243       	92.8256        	91.60914       	96.71509       	90.711914      	90.26014       	97.79862       	91.42154       	91.68385       	95.7225        	84.18282       	93.61342       	98.74907       	87.68702       	91.45855       	98.57376       	87.79654       	89.7693        	95.162704      	90.06805       	92.30289       	92.449295      	85.183174      	94.63588       	94.05716       	85.126045      	92.62977       	96.562386      	83.93989       	89.565636      	98.923386      	86.70372       	90.22423       	94.166176      	87.850235      	97.34911       	90.594086      	90.35838       	96.65638       	91.69499       	89.24356       	97.9996        	94.18065       	87.07674       	96.68767       	
101.01713      	95.41915       	94.7574        	96.88415       	101.12486      	98.160965      	96.7911        	100.03468      	98.3614        	99.54114       	97.89627       	97.220955      	100.575806     	101.603264     	96.402275      	95.408936      	99.628555      	98.60301       	94.208694      	98.83836       	98.75026       	94.435745      	96.78197       	98.51111       	98.146835      	96.510635      	98.14898       	97.45349       	96.46582       	99.358154      	100.14256      	97.102295      	92.48181       	95.48579       	106.61471      	93.75264       	95.34914       	103.04959      	99.974365      	95.257         	98.89931       	101.97322      	99.84511       	96.63152       	97.5394        	99.40163       	100.490204     	95.008286      	99.11445       	102.352104     	95.35347       	95.09101       	104.29984      	99.20749       	94.62585       	100.91257      	98.190765      	97.4581        	99.69858       	97.49724       	99.54344       	95.5905        	93.660995      	102.175766     	95.70722       	91.20149       	98.65978       	94.07933       	88.34295       	99.12678       	98.07841       	93.44034       	95.155075      	89.84488       	96.04797       	98.9416        	88.65506       	94.92895       	100.07468      	87.987434      	90.28393       	98.42906       	91.971245      	93.53378       	94.8079        	90.83796       	94.919785      	97.814995      	88.097015      	95.66401       	97.49733       	87.75634       	95.48548       	98.69473       	87.807976      	94.553185      	97.32215       	87.38977       	94.21741       	96.549614      	
91.776855      	94.43361       	95.28231       	96.306625      	95.72547       	92.15424       	89.616615      	97.583176      	95.655045      	88.11989       	97.6429        	95.55677       	87.145676      	96.222855      	97.976845      	89.53454       	94.81763       	92.43255       	91.219376      	96.78814       	92.441574      	91.0045        	94.38867       	92.392654      	91.55409       	97.93255       	89.74562       	91.17294       	96.26854       	91.305786      	93.302055      	92.498245      	92.051155      	92.28266       	91.832634      	95.01693       	96.98211       	92.70801       	90.13127       	98.97635       	97.32469       	90.42          	96.140495      	96.87708       	91.911545      	93.53295       	98.69887       	95.173294      	96.071655      	96.2533        	93.31913       	96.388565      	97.37151       	95.26484       	98.12398       	93.101814      	92.40026       	96.889275      	95.67395       	88.53358       	96.69854       	93.498604      	87.16337       	95.205605      	94.978226      	91.49871       	93.00606       	88.626945      	87.884445      	100.493126     	92.568         	90.698685      	99.93277       	91.64494       	89.278145      	97.96032       	89.44466       	91.771675      	96.56188       	85.93957       	90.837456      	98.85552       	87.4629        	91.99565       	97.45114       	86.406876      	93.758255      	94.796875      	90.048225      	92.06933       	94.042404      	90.69997       	95.52475       	94.03505       	85.63159       	95.178825      	94.1976        	87.58255       	94.40243       	94.0878        	
91.932755      	94.06306       	92.17634       	87.03195       	85.89952       	95.14816       	95.06347       	90.15845       	95.01323       	92.454384      	87.405014      	97.596634      	89.18159       	89.284134      	95.88056       	87.77241       	86.90352       	96.29508       	91.79269       	89.141426      	93.823715      	90.13779       	91.10673       	97.50683       	87.41394       	93.22994       	95.32016       	89.17496       	93.85844       	95.505775      	91.80008       	91.39932       	91.73588       	87.55254       	97.32929       	96.82722       	88.7297        	96.719246      	95.83484       	90.334625      	96.16224       	93.438194      	94.04546       	97.09422       	89.91518       	91.92475       	100.37362      	93.46907       	90.82681       	98.87247       	91.0745        	94.385895      	97.093056      	95.89306       	94.16171       	95.19179       	94.15215       	97.23945       	94.4619        	90.89063       	95.01253       	96.73615       	92.79386       	94.482124      	97.729164      	90.57976       	91.98917       	98.58953       	90.85376       	91.06831       	95.52896       	89.590935      	92.12816       	96.089325      	90.42964       	92.61571       	93.82784       	82.00626       	99.3879        	98.5464        	84.250885      	97.52327       	96.76884       	85.14788       	94.26209       	97.53195       	89.37784       	96.6855        	94.82304       	86.921844      	98.52751       	94.278         	86.19238       	100.6278       	92.849434      	84.274734      	101.2135       	94.25891       	85.49162       	99.08121       	
95.87174       	94.08186       	93.85727       	95.49781       	94.787094      	90.600174      	93.719604      	97.74517       	92.82635       	88.48321       	95.195724      	95.083046      	90.524666      	92.76474       	97.31409       	90.149826      	90.917274      	95.0074        	92.51225       	90.193954      	91.601204      	92.13281       	92.4744        	93.86755       	92.615776      	90.35921       	91.9609        	90.467354      	95.25838       	90.38675       	91.384766      	93.35302       	91.4965        	92.104706      	91.94604       	96.088326      	91.68237       	85.7692        	89.90923       	98.01144       	89.552444      	89.202896      	97.51189       	92.42819       	87.87287       	94.632126      	94.33223       	93.03296       	92.20109       	91.31802       	91.4073        	96.75237       	88.592125      	91.8833        	96.93444       	87.549995      	89.2028        	96.732895      	91.8082        	87.60292       	93.65856       	89.07913       	89.01071       	92.83171       	88.65332       	92.433365      	89.01679       	83.55112       	96.45369       	93.9406        	85.46866       	92.95781       	94.99564       	78.84575       	82.118774      	79.56836       	79.67927       	84.31404       	76.50201       	79.46054       	88.67611       	81.247116      	80.03071       	89.12626       	80.167885      	81.90531       	87.635086      	86.18181       	82.47867       	84.96799       	88.03671       	86.600204      	88.79105       	82.92054       	88.59456       	89.00424       	86.06142       	87.23211       	92.31414       	85.13013       	
95.39567       	95.05387       	91.35826       	88.167885      	93.47957       	94.295654      	87.37406       	93.14887       	93.17738       	84.096954      	93.41805       	94.14059       	86.501396      	94.70724       	93.297844      	86.28368       	91.737785      	98.46863       	85.77957       	92.8496        	93.84563       	86.68352       	95.52702       	92.417046      	90.38794       	93.367836      	89.89357       	90.90174       	95.99126       	90.54211       	89.55037       	94.2769        	87.70983       	90.80226       	96.028496      	91.02245       	92.02462       	92.60269       	93.4418        	97.299614      	91.47497       	92.799126      	97.57548       	92.007195      	90.81459       	98.297         	94.84767       	92.85414       	95.68776       	90.8241        	92.85653       	100.22444      	93.95162       	95.662346      	97.283455      	92.28049       	94.320816      	98.2307        	88.48234       	99.11171       	94.450035      	86.535034      	97.72808       	96.118126      	89.68306       	95.407364      	92.59376       	89.87797       	96.76423       	93.317085      	91.07964       	97.79472       	91.06174       	91.09526       	99.486374      	93.21278       	91.736786      	96.89043       	93.21347       	93.22148       	97.457245      	94.698166      	93.59078       	94.79166       	93.48634       	101.291046     	96.35304       	93.5279        	99.59321       	97.0622        	93.41598       	98.02307       	97.80296       	97.27368       	97.74285       	95.04225       	98.56982       	100.75186      	93.97348       	98.55777       	
101.481186     	98.93263       	94.75943       	89.62163       	91.424614      	98.248116      	96.754776      	89.119804      	96.597305      	95.03563       	92.57569       	93.4133        	92.48913       	98.17394       	95.75115       	86.01725       	95.170746      	98.76287       	87.81754       	93.61801       	98.67542       	90.041374      	92.278824      	98.36081       	94.580154      	89.870605      	94.31307       	93.59294       	95.1039        	93.629585      	91.63944       	96.68346       	91.473724      	92.98561       	97.90251       	94.812675      	94.53198       	94.374794      	94.12935       	97.339485      	97.19214       	97.60266       	98.09578       	93.316246      	97.68857       	99.783936      	94.93831       	96.59431       	100.58491      	95.77586       	96.56989       	100.36751      	97.562515      	98.64882       	96.26159       	90.318924      	104.32226      	100.29045      	93.13939       	103.23774      	101.28468      	93.85656       	100.625595     	100.948        	94.44512       	101.40552      	94.10137       	92.843544      	103.56388      	97.043465      	90.360344      	100.866325     	98.78076       	91.04841       	101.00848      	98.41859       	92.809654      	96.50826       	97.45018       	97.32677       	99.07681       	92.46888       	97.21447       	99.91178       	95.70025       	93.07011       	102.79609      	93.432365      	92.383026      	101.37896      	96.25439       	94.36531       	96.51016       	94.32014       	97.44836       	98.9025        	93.42586       	98.99503       	97.99383       	91.34582       	
94.32109       	94.7117        	96.52668       	97.25712       	97.889275      	93.655685      	91.98803       	95.99414       	93.56389       	89.8634        	95.2516        	97.81866       	93.21082       	89.18029       	95.14498       	96.162025      	90.33735       	93.39438       	97.68171       	90.50811       	89.33928       	95.26468       	95.53116       	93.08853       	89.24986       	91.36818       	96.25924       	94.87708       	88.83389       	97.436195      	96.705635      	88.6924        	94.71643       	96.22226       	94.2528        	91.425385      	94.123505      	92.021255      	93.902145      	94.67758       	89.51489       	97.73596       	93.45379       	87.918785      	97.95147       	96.696175      	91.42056       	92.93222       	96.59822       	93.15483       	96.350044      	94.55721       	94.624626      	95.87692       	92.734726      	94.90373       	97.27243       	91.92119       	93.03802       	95.14119       	91.52857       	93.39843       	96.40934       	92.06678       	87.425064      	91.52657       	100.85906      	90.02328       	90.303345      	95.69234       	93.77016       	90.65907       	90.071014      	95.83192       	95.95936       	89.74365       	89.75573       	94.9461        	94.71644       	86.87727       	93.95169       	95.6468        	88.17424       	90.58096       	98.38664       	94.07882       	89.736244      	92.40727       	92.15864       	96.1173        	89.35963       	94.008575      	97.27902       	90.09224       	91.8607        	98.60428       	94.46806       	88.52253       	95.159355      	94.17098       	
94.02474       	95.219635      	95.09935       	91.742966      	87.394684      	89.36095       	98.91319       	96.48802       	85.955605      	94.91511       	97.49036       	87.24475       	91.33371       	94.24562       	95.80999       	90.59289       	89.52368       	93.065186      	92.95646       	90.97058       	89.95702       	95.69453       	87.59326       	82.789474      	96.60686       	90.82594       	84.51343       	92.22123       	93.01665       	86.87564       	93.01855       	93.61287       	90.69157       	93.833694      	86.9285        	93.01949       	97.9318        	83.38116       	91.41084       	98.07087       	85.65536       	90.93859       	98.77867       	91.83134       	89.146774      	90.10533       	91.73111       	96.9206        	90.02943       	89.34192       	99.24036       	92.25985       	86.25462       	97.33934       	95.246956      	92.471436      	93.74837       	91.07529       	92.56633       	95.1513        	89.68734       	93.918205      	96.778145      	87.04487       	91.93279       	99.33855       	89.30631       	89.53151       	97.378006      	90.10589       	92.49279       	97.402275      	94.77943       	90.30865       	88.73168       	96.35306       	99.135666      	90.143745      	92.18595       	99.25365       	93.15662       	87.350136      	96.77619       	99.830894      	92.70422       	90.30584       	95.60438       	95.96176       	95.59809       	89.38638       	99.390884      	96.69746       	86.20186       	97.935104      	99.69215       	91.428635      	91.41502       	98.929405      	92.89488       	92.530045      	
97.338135      	93.93724       	88.74521       	88.91712       	94.27165       	97.49785       	89.77345       	94.85716       	99.037674      	86.76883       	91.36431       	100.698105     	91.15193       	90.9514        	95.40409       	90.78386       	94.81524       	92.3938        	92.70058       	94.325516      	91.413666      	90.40283       	98.54402       	96.64222       	86.941086      	95.71134       	95.05751       	91.210625      	95.41779       	94.87637       	91.96019       	90.50926       	95.181595      	93.29179       	91.81591       	93.327774      	90.279366      	87.221115      	95.399445      	92.71076       	91.66517       	94.65449       	92.01212       	91.39152       	96.25795       	88.80997       	93.42024       	97.88718       	88.53692       	90.506905      	99.41346       	90.63452       	89.30144       	96.52001       	89.54904       	92.130615      	95.37618       	88.06241       	93.77214       	92.98263       	86.561844      	95.24455       	94.517654      	86.73721       	92.616264      	91.802284      	87.47076       	94.72275       	94.700165      	87.70657       	89.15266       	86.13696       	93.97299       	96.264336      	86.70674       	92.3315        	97.41002       	87.96334       	91.143906      	95.00443       	91.733505      	93.81595       	89.35616       	90.67044       	97.153076      	92.83559       	90.16296       	93.678024      	93.41094       	88.38107       	94.582535      	95.92268       	89.506714      	93.18245       	96.18082       	95.99336       	94.8911        	90.96119       	95.11105       	95.358696      	
93.46793       	96.99379       	95.393585      	91.34651       	90.072136      	92.893906      	93.73552       	88.743095      	88.43933       	92.900925      	90.62627       	92.88525       	88.424164      	89.04443       	94.94577       	90.73372       	89.58971       	92.68256       	89.34056       	92.207115      	91.280014      	93.03787       	90.08695       	89.87099       	92.40897       	93.0242        	93.24757       	88.71566       	94.19011       	92.551704      	91.489876      	95.02074       	93.681725      	92.00232       	90.00664       	96.64216       	91.884315      	90.77767       	95.6534        	92.89195       	90.71908       	95.2623        	95.877754      	93.00379       	94.966995      	87.20799       	90.583984      	104.84607      	87.32808       	92.31843       	102.60461      	93.83          	92.361046      	96.09368       	94.98628       	96.67329       	96.54041       	90.77408       	98.45468       	97.58388       	92.70436       	97.66344       	99.86299       	90.597946      	94.18492       	101.10141      	94.77296       	94.665085      	96.10627       	95.064575      	97.07036       	93.27145       	96.02164       	96.75813       	91.274956      	93.74806       	97.08975       	95.22297       	88.85291       	94.43895       	97.49423       	90.9331        	94.90424       	94.16841       	93.92062       	91.19709       	93.51967       	96.235054      	94.41763       	92.059975      	90.227486      	98.82634       	92.831314      	91.29631       	97.888374      	95.50005       	92.492226      	94.405685      	99.4991        	93.23646       	
93.02412       	97.78096       	96.01745       	92.53636       	91.53095       	92.79586       	92.89234       	90.81664       	96.565796      	90.77062       	92.19304       	96.409256      	89.83565       	90.29902       	96.86469       	93.01432       	91.36905       	91.85949       	90.81783       	92.36844       	93.94699       	89.96444       	92.432205      	92.41379       	86.53789       	91.0185        	93.852005      	89.74022       	92.20344       	90.63542       	90.711914      	95.639595      	90.996956      	89.31323       	96.55932       	91.29389       	88.464516      	95.23705       	92.743904      	91.849174      	92.695915      	85.40608       	92.69854       	98.06111       	87.09533       	90.68598       	96.43749       	89.22258       	87.50398       	94.10226       	90.98537       	92.319016      	91.45949       	87.395515      	93.29598       	93.27066       	87.090324      	92.936005      	94.324356      	84.452934      	91.68025       	96.635         	88.26674       	88.89347       	91.21004       	88.72975       	91.24076       	89.67327       	88.63477       	91.93517       	87.01315       	86.03862       	96.533585      	89.08704       	86.747955      	92.33134       	80.306526      	93.95007       	95.4123        	83.56703       	92.9764        	96.04944       	86.11549       	91.37601       	93.13245       	88.031586      	92.85838       	88.954025      	83.98444       	97.71225       	91.63391       	83.012115      	97.57863       	91.43412       	84.8745        	99.87455       	91.61324       	88.34944       	96.02311       	89.56419       	
94.4246        	95.16044       	96.22619       	95.66345       	93.961914      	92.46643       	96.45569       	92.86398       	91.58359       	96.07283       	95.74141       	92.88637       	91.653725      	91.47078       	93.38616       	96.98785       	91.14042       	96.361404      	94.81755       	92.3023        	94.18371       	94.90667       	90.66043       	96.51524       	92.0982        	88.86          	96.57359       	92.805046      	92.48189       	92.23764       	92.98074       	91.38402       	95.51934       	88.31808       	93.836555      	92.87001       	88.81446       	93.9873        	92.82703       	90.48013       	91.002365      	91.88868       	91.340904      	93.423416      	91.557335      	91.40874       	86.45014       	87.464226      	99.57425       	90.9316        	88.472534      	96.196625      	92.85951       	91.22594       	91.75387       	92.98569       	95.03991       	92.72876       	85.31421       	95.925285      	96.90535       	85.70875       	94.30127       	96.8118        	85.06969       	95.335075      	96.93849       	88.565796      	93.3253        	92.48776       	90.70267       	97.30584       	93.13749       	89.23654       	95.05618       	93.71228       	88.49549       	97.39429       	91.384224      	87.815254      	94.23455       	93.97922       	92.41394       	90.50737       	92.562874      	92.141266      	92.02287       	92.720665      	92.22596       	95.42813       	88.7666        	93.82691       	98.88779       	88.81339       	92.750694      	94.87525       	89.14627       	97.053925      	92.934616      	91.46244       	
93.17513       	93.50202       	94.36012       	94.47709       	93.32068       	92.93082       	92.428955      	92.627144      	94.77586       	94.37115       	90.84067       	95.05248       	89.36438       	91.9069        	98.8101        	91.486496      	93.52325       	95.009445      	91.785385      	94.22012       	96.66195       	91.27837       	97.75401       	93.023735      	88.735634      	98.44987       	96.773285      	91.719604      	93.64213       	96.72921       	91.471016      	97.80798       	92.89096       	94.790405      	95.969246      	91.89001       	97.500885      	97.006645      	91.71826       	93.6872        	97.47734       	94.223526      	96.05553       	98.542305      	90.53003       	95.89063       	99.42587       	96.06491       	94.2304        	98.38383       	95.0841        	94.80793       	97.632645      	94.011345      	98.950874      	98.57089       	88.315765      	93.54752       	101.0751       	94.44881       	92.104996      	100.67992      	93.880165      	94.53531       	96.39426       	94.52648       	97.43427       	95.93518       	91.95247       	93.814575      	99.21022       	93.2883        	93.846344      	100.41702      	90.391716      	94.568565      	101.323364     	92.47199       	93.94218       	99.57405       	92.27091       	94.56686       	98.72694       	93.87084       	93.94606       	96.46629       	94.05843       	98.15759       	96.34691       	92.23995       	96.132675      	96.17825       	93.39933       	96.52723       	97.38217       	90.87656       	93.649895      	99.52245       	93.32125       	95.7458        	
90.78337       	91.79184       	93.217285      	93.56031       	92.210556      	90.840454      	94.01506       	94.642494      	94.94393       	93.94923       	90.07674       	96.23519       	98.12981       	88.75008       	93.04106       	98.0367        	89.437325      	90.33609       	99.1014        	93.075676      	95.20971       	93.214005      	87.40287       	100.88677      	98.44803       	87.205696      	100.052216     	99.628174      	89.18914       	95.46331       	98.18465       	94.703316      	96.712166      	93.98345       	93.60222       	99.72518       	95.39734       	90.96052       	101.9194       	94.24105       	89.459465      	102.660995     	99.09689       	91.00141       	94.20782       	96.883736      	96.39441       	91.168076      	96.32283       	94.661835      	92.42744       	93.165924      	96.76079       	96.57284       	89.89726       	92.68653       	99.61109       	93.56481       	90.88398       	98.329506      	94.728584      	90.34466       	97.538574      	97.06698       	93.71158       	93.74582       	91.686516      	96.3591        	97.48918       	88.25308       	98.162476      	98.649414      	86.130844      	95.76022       	100.68047      	92.55429       	93.28561       	93.10682       	91.41474       	103.1112       	92.071396      	93.5287        	101.96875      	92.85567       	90.93734       	100.08871      	95.527306      	91.1506        	99.34583       	90.90872       	93.21932       	99.24781       	92.358246      	94.53643       	100.6184       	90.89346       	92.809         	103.58687      	91.41275       	96.31829       	
87.34059       	92.0899        	100.8742       	101.29252      	89.32846       	88.608635      	102.13233      	95.35132       	85.747185      	102.10456      	93.24641       	87.03215       	103.21906      	90.51998       	89.94965       	97.518845      	82.05048       	98.58065       	102.91531      	82.849075      	96.880974      	103.48975      	82.58699       	91.899414      	99.06458       	88.99442       	93.66298       	96.24008       	86.751335      	96.73256       	95.65013       	84.257324      	98.74296       	94.99269       	80.95865       	101.31681      	95.03653       	82.9059        	95.243866      	93.72205       	85.1493        	96.66303       	94.928696      	88.56616       	96.31801       	88.638794      	92.28746       	97.960815      	88.054         	91.47644       	98.68592       	88.15918       	90.84587       	99.98014       	88.81419       	89.012886      	95.29479       	92.76838       	92.34044       	93.65943       	91.62505       	93.8453        	92.596634      	92.38942       	92.85608       	94.32928       	91.642876      	88.384834      	93.1476        	95.55812       	90.27371       	95.41285       	91.955215      	89.641205      	93.16521       	93.39655       	86.79822       	94.628296      	91.432785      	85.03963       	95.64989       	93.20838       	89.52262       	91.64505       	91.618515      	88.928375      	95.42813       	91.37572       	91.14256       	94.492546      	87.80648       	92.39068       	96.07246       	92.1295        	90.37239       	92.740166      	93.8716        	92.59952       	91.43593       	93.17594       	
95.445724      	89.53587       	87.74865       	93.27746       	103.27988      	96.91818       	86.67164       	95.70124       	98.33629       	87.3756        	92.78861       	96.049644      	92.65474       	92.88135       	91.9319        	90.25057       	95.45106       	93.53809       	86.54678       	97.22383       	91.707924      	84.85359       	98.40807       	93.76216       	86.36003       	95.72716       	90.78288       	91.654526      	95.11968       	89.47824       	94.59693       	94.6862        	86.379036      	95.399864      	97.42331       	88.40256       	93.534836      	95.089485      	92.88081       	93.46302       	91.67677       	94.02953       	94.0321        	90.795364      	92.74744       	97.455894      	90.40288       	90.12971       	95.20645       	90.454056      	93.20984       	96.29182       	93.55543       	86.08219       	92.95288       	100.0339       	90.82462       	91.948044      	98.20105       	94.36357       	93.202354      	90.78484       	93.91502       	97.46689       	92.895386      	88.81182       	97.430336      	95.44462       	91.18012       	94.35416       	99.16859       	89.67552       	90.93918       	99.961685      	94.1689        	88.409515      	95.0319        	93.00061       	93.35296       	93.48267       	94.329666      	92.69686       	92.99211       	91.75446       	97.10782       	93.71505       	91.39788       	93.91444       	95.39037       	92.85423       	93.88454       	99.156         	91.757286      	85.95983       	99.24024       	98.33202       	90.69414       	95.24328       	98.873665      	93.55644       	
99.04976       	97.04183       	91.078354      	91.402016      	95.89454       	94.0857        	88.3268        	93.98006       	99.20589       	89.92867       	90.26991       	95.71142       	90.5334        	89.72953       	96.29261       	91.36671       	92.0326        	93.738945      	91.226814      	96.5057        	91.77357       	87.905014      	94.02223       	93.45059       	86.93066       	92.86345       	95.0061        	87.73246       	92.391525      	94.35954       	93.90609       	94.178314      	91.23157       	91.2931        	98.83658       	90.95295       	91.79113       	98.06416       	92.310135      	92.65545       	97.82747       	95.544914      	91.692024      	94.80089       	92.2946        	95.256065      	98.9743        	95.055756      	95.37684       	96.31296       	92.61035       	97.36439       	95.376465      	94.46476       	97.7015        	94.38089       	92.13754       	99.17029       	96.48451       	94.56361       	95.338135      	92.56943       	95.38151       	95.71349       	93.09985       	94.72621       	91.65235       	88.5673        	100.77223      	98.18685       	91.57878       	97.94015       	99.98774       	92.50933       	95.66679       	96.51308       	94.939606      	97.71094       	90.691216      	94.70828       	101.50136      	93.615845      	92.38585       	99.25719       	95.87072       	92.548996      	100.8415       	99.54278       	94.47731       	96.01229       	100.10857      	99.60212       	99.18061       	95.19919       	100.423706     	100.35185      	99.68114       	97.95242       	103.94103      	95.94388       	
93.78519       	90.92367       	91.09035       	90.78248       	87.9751        	90.56528       	97.4767        	88.76897       	92.36783       	96.92766       	90.24388       	90.523346      	94.54188       	93.14769       	92.779106      	93.69699       	88.858894      	89.7282        	96.72591       	86.88293       	89.09389       	95.52371       	88.31142       	88.86732       	95.45614       	91.391655      	90.66026       	92.3013        	89.25855       	92.18446       	94.85702       	88.160774      	93.297356      	92.5607        	81.989044      	99.349205      	97.126236      	85.76115       	96.701614      	96.84864       	87.72226       	93.222694      	94.18574       	88.70589       	97.820015      	89.391884      	85.68063       	101.37428      	92.93424       	87.41641       	96.47979       	94.8389        	87.54788       	97.1897        	94.67144       	88.97405       	94.71251       	92.32393       	93.256485      	95.63771       	87.14228       	91.68535       	97.75623       	90.549774      	92.25307       	97.6456        	90.63431       	86.88957       	96.907394      	92.31435       	88.93416       	94.38283       	87.70719       	91.35908       	93.64128       	88.56796       	91.326256      	95.03217       	87.58039       	88.90998       	97.50108       	88.11992       	92.093864      	94.19704       	87.481705      	94.50809       	95.53007       	90.46627       	93.62145       	95.41281       	85.00416       	94.18895       	99.16576       	88.59721       	95.50268       	94.87533       	88.73955       	99.27196       	92.678024      	91.186775      	
96.063194      	92.21086       	92.55373       	93.64361       	95.506386      	93.16479       	89.24647       	96.58887       	90.95341       	91.66359       	95.97318       	93.1812        	89.58338       	95.42551       	95.290535      	88.73436       	94.749725      	93.82994       	86.83697       	89.76245       	95.49866       	93.22536       	91.92412       	93.0096        	91.99976       	92.25554       	91.11311       	89.21024       	96.263214      	93.2263        	85.17912       	95.43614       	96.05066       	89.60246       	93.864006      	94.634834      	88.15457       	95.2793        	93.109505      	91.55678       	94.11807       	89.8176        	91.429146      	96.50734       	93.07938       	90.555504      	94.67943       	91.061874      	92.78356       	95.36503       	92.87215       	92.65874       	92.64765       	91.35172       	94.54149       	94.734146      	93.32028       	91.69229       	86.68099       	95.30987       	96.42923       	86.55588       	92.80954       	96.23511       	88.774536      	89.8887        	93.30888       	93.18083       	93.968506      	88.04949       	89.7098        	97.06591       	92.06351       	85.41664       	99.19425       	93.614174      	85.93365       	97.90427       	95.05608       	88.470985      	93.78036       	94.234116      	92.59709       	96.6796        	95.05399       	89.383835      	97.97412       	94.00865       	92.436516      	97.66088       	94.69564       	91.88354       	97.48372       	95.74715       	92.94111       	100.46236      	99.09159       	87.43773       	94.25049       	100.78557      	
96.648315      	98.04963       	91.333405      	85.872604      	89.63942       	100.067795     	94.01022       	87.38712       	95.26061       	91.948         	93.39173       	94.75769       	91.54566       	96.0064        	93.09531       	87.16325       	96.460075      	97.40836       	89.10965       	92.47853       	95.024254      	92.29467       	93.067856      	92.40022       	92.526886      	93.7487        	89.42713       	91.00545       	96.83819       	91.165276      	92.44948       	93.44538       	87.614136      	94.92374       	97.531334      	90.64558       	94.24477       	93.99228       	91.67533       	93.707245      	93.49559       	91.77353       	95.67752       	92.62289       	88.40911       	99.132965      	94.10505       	88.84096       	98.18694       	92.28617       	88.70447       	100.18525      	93.59535       	89.14746       	98.424164      	91.800606      	90.48715       	99.26946       	91.97877       	91.083725      	94.572014      	88.860435      	91.71204       	94.82758       	88.1728        	90.256744      	91.27429       	84.69274       	97.749886      	91.715744      	87.05627       	96.33824       	91.50516       	85.75512       	94.660194      	89.034775      	89.22807       	95.42903       	85.211006      	88.32342       	97.53659       	87.71556       	87.73288       	93.75708       	85.07551       	87.978676      	92.7233        	87.91314       	90.73873       	92.29272       	88.39957       	95.378876      	93.02007       	88.65144       	94.687225      	94.67083       	91.996666      	97.929214      	95.716415      	89.60115       	
88.721405      	93.88732       	96.96491       	97.50998       	90.39456       	90.20879       	99.41469       	91.17924       	89.65153       	101.5139       	94.63419       	89.085014      	101.191734     	92.33366       	90.09066       	101.813515     	94.31619       	92.0673        	97.50752       	90.47769       	97.16431       	96.885826      	90.46352       	94.77999       	97.14733       	87.28956       	95.26087       	100.23337      	89.588585      	94.14406       	92.28753       	97.57594       	99.63513       	95.836334      	96.84514       	99.21745       	95.77356       	94.29553       	100.54072      	97.19801       	98.25035       	96.39073       	94.582954      	99.32344       	98.136475      	94.92709       	96.68938       	97.77567       	96.76868       	95.61443       	99.111824      	94.65125       	93.896         	98.10837       	96.38859       	98.24297       	93.42559       	93.406044      	98.68241       	92.31021       	93.38973       	95.26449       	93.38526       	89.841255      	95.05379       	96.31339       	92.31042       	92.59461       	89.98963       	96.16598       	92.95747       	91.41488       	93.34688       	94.23868       	90.99769       	91.79141       	97.46941       	92.60669       	92.43951       	93.60965       	91.85981       	97.61956       	97.610115      	93.79114       	95.335495      	94.8757        	94.64489       	97.05053       	96.221855      	97.05079       	100.425934     	95.9393        	98.81625       	105.786        	98.51478       	97.40126       	103.07917      	100.939606     	98.59073       	101.75903      	
89.36999       	87.26712       	93.64006       	100.17347      	98.06608       	85.93018       	91.31124       	100.08203      	92.06344       	97.506134      	101.746895     	92.511406      	96.306755      	95.91565       	91.7175        	98.79843       	95.60402       	88.361694      	97.32358       	94.89818       	90.04525       	95.567245      	95.84618       	88.47655       	92.17928       	96.15564       	90.02939       	95.488525      	91.09498       	89.81898       	96.27527       	94.8095        	89.33741       	98.53629       	94.680504      	90.33131       	99.44504       	95.14214       	90.503746      	96.2045        	91.0926        	93.686485      	99.76586       	94.721176      	91.54107       	95.27287       	96.45581       	93.376785      	98.05562       	94.40995       	94.53133       	95.43147       	92.24123       	96.89185       	96.852715      	91.84572       	90.72663       	94.2149        	97.40807       	89.69777       	92.15142       	91.85898       	88.13322       	87.1132        	88.64486       	91.1408        	91.60666       	86.17587       	84.95474       	96.4877        	88.3648        	83.69964       	92.9161        	90.13366       	85.0257        	90.534164      	92.239044      	87.841064      	92.62361       	84.46036       	85.743256      	95.03139       	89.624886      	86.699715      	95.7371        	89.66839       	88.037735      	95.25748       	89.911415      	92.431114      	97.52434       	85.76147       	94.511894      	98.01456       	91.98093       	97.54248       	96.81796       	90.97184       	101.210846     	95.25955       	
95.410835      	94.49415       	91.45747       	89.4032        	93.8828        	94.76938       	85.65975       	91.86281       	99.751335      	88.86943       	91.57926       	94.76308       	88.70155       	94.79491       	91.3181        	90.5417        	94.26966       	91.774765      	89.84638       	95.16426       	94.401924      	88.85999       	95.347534      	92.38052       	90.548615      	99.88669       	95.48665       	93.22295       	95.66045       	95.774666      	98.00509       	96.49631       	96.222         	98.31318       	94.36442       	93.20174       	99.86393       	101.77255      	92.104454      	96.152954      	98.21896       	93.61067       	92.59778       	96.03112       	95.73015       	92.24732       	95.018555      	97.19034       	94.89049       	92.649376      	95.24228       	88.65551       	98.96749       	96.73439       	93.261475      	98.94496       	95.59544       	91.38814       	98.20838       	91.42639       	91.61743       	99.87325       	88.1842        	87.6551        	98.947075      	92.18839       	88.87623       	95.62467       	89.712326      	93.387955      	92.173515      	90.12825       	92.39009       	92.86282       	89.63722       	94.59063       	94.88775       	86.04743       	92.65352       	95.55241       	88.950966      	93.49715       	95.851006      	88.55889       	93.171844      	97.58104       	90.86827       	92.96827       	98.12096       	92.28576       	93.88111       	98.835655      	94.53034       	102.432365     	99.20626       	87.1558        	106.61867      	103.36866      	90.981514      	104.02931      	
93.86259       	93.75098       	91.72806       	86.51066       	85.01911       	97.63991       	97.191536      	85.677925      	93.89117       	98.6425        	87.240074      	89.10387       	96.74711       	91.6755        	93.889046      	93.13893       	88.47055       	91.92871       	94.99879       	84.97493       	94.83929       	94.53087       	85.202324      	92.81709       	97.00691       	88.516045      	89.5787        	96.06904       	89.82049       	93.84593       	96.802895      	93.114975      	92.11153       	93.5851        	97.62055       	97.799736      	92.56117       	95.64623       	96.51979       	92.60526       	94.09213       	98.79078       	94.19169       	90.63211       	94.16512       	98.41235       	95.63976       	94.92516       	96.50342       	96.85335       	93.900894      	93.05974       	98.78996       	97.75005       	89.706085      	93.05656       	96.91194       	95.09684       	84.792076      	96.436874      	93.3042        	84.44707       	91.08313       	90.50673       	86.30164       	89.99554       	88.47672       	84.74592       	88.02543       	89.91771       	83.4627        	90.28372       	87.80272       	83.43807       	90.65811       	87.75075       	85.84626       	91.38012       	85.30329       	79.843315      	93.55164       	91.09376       	85.390045      	91.2481        	88.70973       	87.43637       	91.27742       	86.20744       	90.55159       	96.31841       	83.52324       	98.131584      	100.07348      	89.473274      	94.97535       	103.02759      	93.53128       	95.4061        	99.87835       	96.76286       	
94.32023       	93.699875      	95.67226       	98.78456       	98.1549        	94.031975      	93.80876       	94.09221       	95.31478       	95.8665        	92.44914       	94.95788       	96.113266      	90.094154      	93.02359       	99.26245       	93.83802       	95.59474       	91.97104       	91.99699       	100.10869      	98.32141       	90.575836      	100.05856      	98.04145       	90.67492       	97.04033       	98.61523       	96.525894      	97.18232       	95.57758       	101.38559      	102.88964      	96.109505      	100.99452      	104.72887      	94.11181       	99.796425      	107.92085      	98.79898       	96.380035      	103.75783      	97.64774       	99.52717       	99.80638       	98.9146        	99.83967       	98.44845       	98.55604       	101.95696      	102.6499       	93.724335      	99.37438       	102.25341      	95.55266       	95.22767       	102.26872      	96.94507       	91.704216      	97.6812        	92.30514       	91.84879       	93.95848       	91.61653       	91.91505       	90.12309       	89.67901       	93.815216      	91.027534      	82.667         	95.11557       	97.63935       	87.366425      	92.39715       	94.853355      	88.32854       	90.923615      	90.43382       	92.0975        	93.208984      	87.8826        	86.39186       	95.973015      	91.860146      	87.528885      	93.80486       	93.04002       	87.93851       	94.09089       	95.64278       	94.13033       	95.46589       	97.22137       	102.68482      	97.85236       	96.35002       	102.37005      	98.66994       	98.2749        	99.008224      	
100.11995      	87.477455      	81.91842       	86.741035      	97.75753       	94.64372       	82.17889       	91.88224       	93.30936       	82.717964      	95.04313       	92.77193       	87.440155      	94.00491       	87.64727       	85.30811       	99.36849       	85.27917       	84.229645      	96.40979       	85.91783       	84.803795      	95.78881       	90.46044       	84.805954      	90.84451       	86.613335      	92.45397       	96.7711        	88.52498       	97.94058       	92.56599       	91.82834       	97.13106       	95.78023       	90.581375      	102.01954      	99.23076       	98.727554      	108.52979      	102.32336      	99.310555      	102.26408      	99.61403       	101.51192      	100.63577      	97.15491       	96.60047       	96.591805      	90.11828       	92.40698       	95.44443       	88.585434      	89.076454      	87.7106        	90.99667       	92.11156       	89.70444       	87.48043       	88.15626       	84.209755      	83.40599       	81.30989       	84.020744      	87.557236      	83.88402       	85.53365       	88.120605      	87.70773       	85.230316      	85.80171       	87.385025      	84.53535       	90.353676      	87.28942       	86.27316       	88.49911       	84.93642       	90.933426      	88.93633       	88.02913       	91.63067       	86.79772       	89.172035      	93.42952       	91.86565       	88.22636       	94.73755       	87.79113       	89.62041       	102.8667       	91.74604       	101.455025     	100.40685      	95.19084       	100.080185     	101.85402      	96.17937       	104.53988      	96.80777       	
97.280624      	91.48123       	86.399216      	87.12271       	92.37841       	95.22233       	91.60234       	89.090096      	90.10359       	95.18175       	93.03894       	89.50444       	94.03781       	96.70793       	88.81779       	90.90602       	98.90638       	92.217735      	90.66841       	93.190605      	96.25636       	93.82303       	95.56383       	94.86296       	94.81308       	93.57535       	97.93298       	99.576866      	96.406075      	97.313805      	98.59077       	98.08261       	98.63052       	101.64122      	101.92972      	97.384735      	94.7048        	104.32262      	100.257935     	93.29674       	99.08306       	102.29554      	93.11891       	95.373726      	101.91875      	94.88053       	96.81413       	94.29125       	92.75256       	98.868484      	100.44646      	96.1029        	102.978645     	96.61568       	94.621895      	98.41192       	94.70433       	89.462906      	95.94221       	88.66368       	81.83256       	89.97736       	86.835014      	81.19085       	84.88011       	82.25355       	85.09839       	87.26507       	86.51491       	88.06451       	89.76301       	84.93031       	90.373604      	94.44116       	85.5227        	84.31962       	91.28319       	90.36593       	85.37699       	90.479965      	92.617386      	87.88574       	89.64928       	92.46684       	91.40003       	89.27028       	88.35053       	90.19935       	98.13295       	92.56661       	94.182816      	95.94589       	95.65103       	97.437675      	103.39688      	97.84671       	100.985        	97.54447       	96.692955      	103.4506       	
