# www.neaspec.com
# Scan:	 	Whitelight Imaging
# Project:	 	20251007_PS
# Description:	 	
# Date:	 	10/07/2025 16:01:01
# Scanner Center Position (X, Y):	[µm]	49.66	48.17	 
# Rotation:	[°]	0	 	 
# Scan Area (X, Y, Z):	[µm]	5.000	5.000	0.000
# Pixel Area (X, Y, Z):	[px]	100	100	1
# Interferometer Center/Distance:	[µm]	546.322	0.000	 
# Averaging:	 	1	 	 
# Integration time:	[ms]	5	 	 
# Wavenumber Scaling:	 	1.000000	 	 
# Laser Source:	 	4.5-15 µm nano-FTIR laser
# Detector:	 	R
# Target Wavelength:	[µm]	7.502	 	 
# Demodulation Mode:	 	Fourier
# Tip Frequency:	[Hz]	238,800.109	 	 
# Tip Amplitude:	[mV]	13.000	 	 
# Tapping Amplitude:	[nm]	74.298	 	 
# Modulation Frequency:	[Hz]	0.000	 	 
# Modulation Amplitude:	[mV]	0.000	 	 
# Modulation Offset:	[mV]	0.000	 	 
# Setpoint:	[%]	79.75	 	 
# Regulator (P, I, D):	 	4.206850	8.625812	1.000000
# Tip Potential:	[mV]	0.000	 	 
# M1A Scaling:	[nm/V]	0.426	 	 
# M1A Cantilever Factor:	 	1,000	 	 
# Q-Factor:	 	452.3	 	 
# Version:	 	2.1.11536.0
85.59596       	84.64967       	85.827065      	87.98575       	84.830864      	87.97077       	85.01623       	83.778305      	87.36657       	89.078125      	83.44719       	86.486046      	86.351006      	82.345634      	89.66956       	86.44921       	83.056595      	86.85023       	87.25581       	83.54469       	86.95231       	89.19454       	81.59712       	87.830124      	90.80268       	88.49504       	92.23277       	87.24161       	91.79846       	96.80465       	92.09074       	93.11837       	101.17702      	92.46251       	92.056046      	95.15069       	95.47237       	101.352066     	96.88732       	94.13958       	100.13616      	99.48007       	94.744255      	101.77178      	100.1836       	96.86455       	101.2567       	98.934006      	98.85856       	102.41256      	101.01465      	99.42943       	101.15198      	97.25586       	100.782364     	101.815956     	90.85662       	94.18592       	100.06254      	93.99216       	93.251305      	96.992096      	91.97718       	93.67015       	93.56361       	92.01873       	96.242516      	91.70714       	88.0249        	93.674774      	95.56041       	86.44132       	88.01491       	96.804085      	84.80432       	86.58679       	86.75994       	87.76856       	92.81001       	87.81465       	84.103714      	92.03162       	87.32647       	88.929474      	93.19954       	92.632454      	95.911415      	95.829185      	92.5063        	100.30467      	99.782906      	94.3095        	101.77473      	97.60656       	96.576225      	101.20955      	101.81387      	97.14293       	94.48526       	94.67329       	
90.39897       	97.03057       	91.37735       	85.42691       	90.925705      	93.16635       	85.46679       	88.47734       	93.55952       	85.22359       	85.331894      	90.67025       	91.1136        	88.12081       	84.75835       	87.57606       	90.713295      	87.9298        	82.8509        	92.10018       	87.47851       	81.81326       	92.296646      	91.78075       	85.83089       	89.06165       	91.9464        	91.5977        	91.271194      	92.20645       	94.01103       	97.44149       	92.2551        	93.53303       	101.5998       	93.85164       	89.37654       	95.14879       	98.10719       	94.48205       	94.22641       	97.695465      	93.973465      	89.39684       	99.011444      	96.59497       	91.888664      	95.07625       	95.00909       	93.614105      	95.65321       	96.46883       	93.95328       	98.5149        	89.59293       	92.013054      	98.9113        	86.70185       	86.10058       	98.249435      	88.3275        	85.23083       	94.34268       	86.70379       	87.58782       	88.42764       	85.04473       	90.897446      	87.19898       	78.7405        	87.07732       	94.19971       	81.357216      	81.73356       	95.92254       	80.65674       	82.5498        	85.15154       	84.281006      	90.029106      	86.58878       	81.19233       	92.14156       	88.32101       	84.60429       	100.73153      	95.84113       	90.39505       	100.98416      	97.98338       	99.26673       	105.05006      	98.27691       	98.9862        	100.97742      	98.303154      	99.55724       	101.12432      	100.71724      	100.85928      	
97.890175      	94.92988       	93.875565      	94.57284       	95.98768       	98.935005      	93.431625      	96.083916      	102.57918      	91.38106       	90.07567       	99.31927       	97.83243       	92.453995      	98.95324       	95.50357       	91.548546      	97.81094       	96.51878       	93.959274      	94.65877       	98.14938       	93.74114       	97.43314       	101.81896      	96.29056       	99.440216      	95.13033       	94.762344      	108.844284     	100.058334     	94.40852       	109.03128      	103.57797      	94.194595      	108.56873      	105.49882      	98.201035      	101.54248      	109.33724      	105.26092      	105.66308      	102.38387      	106.48807      	111.85078      	103.661674     	104.79732      	114.38158      	108.70482      	101.189705     	110.78685      	109.8422       	108.76409      	112.66346      	106.583855     	107.033005     	106.26046      	107.54034      	110.66007      	105.21459      	103.56588      	105.83395      	105.586235     	101.85246      	102.81686      	104.999565     	97.313156      	95.11252       	105.94909      	98.52186       	92.609604      	98.80153       	96.6934        	91.36159       	94.107         	94.18298       	91.185715      	87.16011       	91.3098        	92.89381       	87.02508       	82.22201       	91.532585      	94.59492       	92.94095       	87.70128       	94.240585      	96.67387       	94.68489       	94.47827       	103.39452      	103.0774       	89.728836      	91.01308       	94.5939        	85.32654       	83.507515      	86.872116      	90.691475      	88.98686       	
98.15687       	85.07406       	90.8248        	94.09689       	85.917755      	93.339386      	87.47073       	88.78057       	97.082275      	82.54649       	81.67057       	92.91541       	85.5291        	80.91984       	94.73596       	86.46152       	79.76001       	89.19577       	88.81398       	85.74208       	86.13243       	88.896484      	85.30831       	88.10674       	92.28844       	86.89627       	92.67355       	86.59441       	86.10654       	99.982254      	92.78129       	85.90663       	99.07333       	96.604164      	84.20546       	100.92545      	98.03987       	88.64604       	95.32319       	100.78303      	94.69896       	93.25134       	92.79391       	95.1845        	98.665115      	92.498405      	91.88326       	103.26266      	92.347916      	88.30631       	97.248535      	95.9007        	94.15571       	96.18613       	93.50087       	89.36565       	89.90052       	94.57475       	91.95894       	91.54908       	90.05849       	90.5959        	92.08568       	86.38285       	88.98949       	90.5031        	79.3313        	87.70256       	93.49696       	81.766884      	81.25582       	89.992546      	83.39601       	81.834946      	88.31981       	78.4168        	84.80379       	84.43848       	77.14888       	89.34261       	84.87552       	74.71245       	90.191574      	89.99128       	84.579185      	95.101456      	101.180176     	97.70877       	110.67602      	110.36827      	108.84322      	115.37349      	103.50465      	97.37081       	100.79157      	94.77961       	87.55021       	87.70271       	93.18788       	93.868515      	
93.748344      	84.63966       	94.44899       	99.12699       	82.583015      	93.69091       	99.55936       	81.070465      	90.163506      	89.59655       	85.97257       	95.020424      	89.58428       	84.170815      	93.98077       	88.46839       	85.43159       	96.540695      	86.71054       	86.694336      	93.558075      	86.06572       	89.77052       	95.77693       	86.83078       	88.80342       	94.09645       	87.475334      	92.8875        	97.60287       	86.96945       	92.43483       	95.77416       	90.568954      	95.85097       	96.61901       	86.927124      	95.07673       	97.76697       	88.624664      	95.52355       	95.78487       	90.04654       	90.576645      	92.69994       	97.8344        	96.70122       	92.40219       	91.293785      	97.856285      	93.605064      	90.195305      	97.40773       	91.96048       	92.878265      	89.05196       	90.003494      	93.87698       	88.431114      	87.31385       	93.44502       	85.115105      	85.49986       	92.70183       	82.63512       	82.21972       	86.95826       	82.0985        	85.26262       	83.888725      	78.122574      	85.065216      	79.35639       	74.092926      	89.33576       	79.66734       	72.03181       	85.64017       	78.81143       	75.01763       	82.14742       	86.21489       	78.90966       	85.25367       	93.6986        	100.68514      	107.79872      	105.08526      	114.47895      	123.20943      	114.57928      	114.146255     	119.733574     	105.52604      	94.13078       	98.096466      	88.043594      	86.22801       	88.40368       	91.18035       	
95.864265      	91.08985       	99.738815      	88.82582       	88.01118       	90.03903       	91.985306      	94.37625       	88.625336      	87.74037       	93.65028       	89.01539       	87.755196      	95.745964      	86.80604       	85.763756      	93.50864       	87.1992        	88.08316       	91.17337       	88.63133       	87.912094      	91.088615      	87.44069       	95.54493       	95.33782       	83.04042       	90.79019       	96.292         	87.50659       	93.775986      	95.66288       	88.889435      	93.10674       	92.44238       	92.483475      	94.7072        	91.60233       	91.634895      	94.360756      	94.25188       	91.96634       	94.88013       	95.15608       	89.26327       	90.718094      	90.18228       	94.083336      	93.971436      	88.21587       	90.27718       	91.85572       	90.10225       	92.27234       	87.83492       	86.289955      	87.34222       	83.36955       	86.54971       	93.0911        	84.116646      	82.57063       	88.0856        	81.23402       	84.218216      	87.95668       	77.48219       	83.26924       	84.08304       	73.92953       	83.83812       	81.76648       	71.207825      	79.876205      	80.899704      	70.248184      	80.18318       	81.45534       	68.20614       	78.07128       	80.941864      	76.75439       	85.08481       	86.63551       	94.23559       	112.07319      	108.44599      	109.91779      	126.71718      	119.415245     	110.40332      	121.71956      	113.50046      	101.34305      	105.15323      	87.30516       	91.45839       	90.648506      	85.854454      	82.36101       	
91.17049       	94.38892       	85.86933       	100.11776      	96.898895      	85.94463       	95.05163       	95.15145       	91.13227       	96.56226       	90.24112       	89.78734       	101.66859      	86.999435      	88.52056       	104.63798      	87.90868       	82.16972       	98.808464      	86.755875      	88.29864       	100.19503      	85.91865       	88.70667       	98.04616       	87.70241       	91.65935       	94.24654       	83.13026       	94.20638       	94.57084       	86.01929       	96.08635       	95.00081       	82.85857       	94.74757       	92.39792       	89.04564       	93.427124      	91.25748       	90.00357       	91.69506       	91.1654        	91.653145      	96.58635       	87.88719       	89.85644       	96.39893       	87.29939       	89.20845       	94.821075      	87.44948       	87.4655        	94.31714       	89.496284      	87.06816       	93.2338        	83.976974      	86.18167       	92.54508       	81.81388       	84.4615        	89.47485       	79.62294       	77.23035       	84.250046      	80.1376        	80.53692       	82.05185       	73.07759       	77.19829       	82.727455      	69.04164       	75.20804       	78.47623       	69.90871       	68.19319       	75.03567       	73.93948       	76.41417       	73.66329       	73.17011       	83.6348        	92.71265       	96.18614       	111.72746      	115.9467       	109.82235      	117.97767      	126.32978      	121.8267       	120.26556      	119.23519      	102.78447      	95.41959       	91.120514      	87.56904       	87.03967       	86.10282       	84.259224      	
87.44836       	93.52694       	87.3993        	94.778656      	97.27802       	81.884636      	93.8401        	97.47632       	83.0237        	93.708046      	96.24036       	84.86553       	89.67098       	93.6021        	90.7939        	90.237274      	90.73079       	87.93663       	94.38832       	90.490555      	84.42529       	96.626465      	94.76688       	81.1632        	90.428024      	95.724884      	89.705826      	94.43163       	94.305855      	90.809456      	89.51877       	94.930046      	96.15402       	92.39247       	93.158485      	92.54987       	94.50948       	94.25924       	89.9253        	96.72038       	92.8531        	86.95341       	94.30903       	99.45076       	88.04512       	91.17208       	97.83175       	90.03585       	92.71699       	95.19219       	90.534805      	94.23014       	91.18898       	87.89202       	96.80631       	88.77946       	83.40719       	93.7358        	88.72508       	83.14502       	88.70487       	88.564224      	81.14063       	85.19828       	85.73134       	83.18556       	82.215164      	79.32823       	80.45866       	82.28492       	78.074554      	75.77269       	84.32442       	74.0685        	70.06758       	76.10156       	74.70479       	74.06833       	76.219086      	71.57686       	73.862595      	82.28181       	91.68342       	100.3756       	113.9275       	122.25926      	127.352036     	120.898186     	124.24611      	131.78172      	127.29644      	127.31528      	124.07944      	106.6289       	104.00844      	88.64864       	94.400116      	91.06221       	86.281845      	81.59059       	
92.80249       	97.25224       	90.49142       	88.0277        	96.59869       	89.94351       	89.510086      	97.720345      	90.47807       	86.93765       	96.362686      	92.06579       	88.634         	97.28447       	89.755775      	87.75237       	96.61565       	92.03336       	91.29993       	93.60637       	88.48784       	88.77657       	90.751884      	88.76785       	92.18227       	94.22765       	85.01043       	90.85072       	97.9331        	85.9954        	89.66178       	98.96032       	88.78392       	86.81184       	93.537476      	96.090454      	92.53736       	87.9766        	92.50687       	92.978165      	91.43619       	90.21652       	94.50154       	93.87647       	88.2679        	88.70208       	95.31072       	92.13626       	87.78608       	91.95401       	89.93648       	84.92183       	93.572105      	88.93778       	87.749115      	87.971344      	84.155556      	89.537704      	84.618965      	83.81609       	84.1786        	83.11581       	81.24423       	82.00282       	84.64826       	75.58078       	78.313         	80.37755       	76.96497       	79.57655       	71.23478       	76.12186       	78.10913       	72.04608       	70.46567       	77.46553       	71.00197       	63.572884      	70.889824      	69.67138       	73.939125      	80.20979       	91.403694      	109.69234      	119.30787      	128.3168       	130.7925       	123.55489      	115.88419      	126.21053      	126.632095     	118.709335     	119.72464      	110.29711      	100.20711      	90.13721       	88.312935      	87.43846       	82.48094       	82.21386       	
94.37646       	94.08566       	91.368484      	96.67199       	94.856804      	90.62672       	93.03217       	96.78972       	89.31019       	91.26092       	94.26152       	93.05346       	92.65959       	90.0483        	89.59473       	93.290276      	90.67746       	88.587715      	94.01002       	89.42402       	87.19813       	94.289536      	89.6544        	89.31102       	91.00201       	88.71607       	89.23695       	92.97511       	87.34523       	89.59701       	93.98112       	85.11905       	91.811775      	94.43959       	83.72624       	89.858444      	95.11485       	82.71855       	90.14886       	93.28802       	85.44209       	88.37717       	88.85011       	89.23556       	89.97152       	86.748795      	86.373856      	91.99796       	89.13969       	82.77242       	93.23511       	88.84135       	80.83761       	86.73246       	82.34978       	85.428345      	87.77403       	81.38402       	82.54359       	82.54472       	80.38436       	83.40362       	82.38935       	74.52308       	81.80628       	79.18828       	71.77264       	81.784294      	76.02937       	72.938385      	74.58829       	74.3794        	71.029785      	74.631805      	69.34618       	67.653946      	71.78101       	69.91826       	70.66706       	71.061775      	71.23001       	76.65736       	96.107376      	107.36055      	118.63044      	127.11573      	120.055336     	113.03338      	118.9206       	124.223625     	119.30094      	119.53069      	114.66798      	101.8723       	99.410645      	87.723724      	87.95971       	88.84633       	80.03848       	80.62105       	
97.09099       	95.57744       	94.14133       	95.87386       	95.24939       	94.16641       	95.70886       	94.11864       	98.48125       	91.22958       	90.13884       	96.78683       	95.28385       	90.20722       	93.26452       	94.415565      	87.396675      	92.241135      	96.109116      	84.16633       	91.13973       	89.87947       	85.736465      	90.878784      	90.255035      	84.386505      	89.990845      	86.373405      	85.187386      	92.723434      	85.56083       	81.94809       	93.65282       	84.47545       	80.89316       	93.82298       	83.503456      	78.562836      	91.22322       	86.646866      	81.70213       	90.167816      	84.91916       	85.85885       	90.64924       	84.55419       	89.128914      	93.02801       	81.77387       	84.73112       	89.68608       	85.26662       	89.52809       	91.47848       	83.28312       	86.68343       	91.28449       	83.396774      	89.393         	89.27388       	83.42086       	86.662766      	86.64902       	84.58686       	90.950714      	84.43876       	78.8712        	88.46864       	87.580795      	76.89243       	86.20785       	84.43063       	76.98945       	82.51402       	84.01598       	80.06979       	83.88163       	78.70003       	76.661316      	88.05226       	82.90496       	80.32732       	101.94332      	108.59298      	108.72861      	123.95977      	120.73808      	120.017525     	128.82489      	120.26714      	119.26637      	126.78989      	116.13346      	104.64982      	107.16523      	90.57779       	96.52479       	92.76976       	86.09395       	83.936485      	
94.56806       	91.88551       	97.08683       	93.74217       	88.21046       	97.306076      	97.630745      	87.94666       	94.718315      	98.13156       	88.15954       	92.443085      	92.38182       	91.06711       	99.32982       	90.76047       	89.84577       	96.80514       	90.76891       	91.53219       	97.72413       	90.991936      	90.912636      	97.54496       	90.64285       	94.66292       	98.14608       	88.23702       	93.06783       	97.63348       	90.96156       	94.10115       	98.35474       	88.199615      	94.35037       	94.05201       	91.028114      	94.868645      	96.27597       	89.47948       	92.01957       	99.01473       	91.18621       	92.73787       	98.63207       	90.483734      	90.1591        	91.64196       	92.97447       	96.422966      	90.38089       	88.494514      	93.176445      	91.77522       	86.82863       	89.37938       	93.26566       	85.085495      	85.96414       	86.55711       	89.35043       	86.13452       	83.57484       	86.57613       	84.500336      	79.9631        	87.6125        	86.07298       	75.289276      	81.86701       	82.9194        	76.63945       	78.411026      	78.478065      	75.75177       	75.30036       	74.45157       	77.51723       	75.64781       	73.88002       	72.4294        	79.60177       	82.96331       	84.13089       	100.86253      	106.25394      	104.60289      	104.579865     	107.08134      	113.763725     	112.03938      	104.77141      	103.59326      	97.17194       	85.807816      	88.428375      	84.62712       	80.07146       	78.68645       	79.506485      	
84.21235       	98.85863       	84.51335       	85.440544      	97.28368       	86.77664       	85.95084       	97.78798       	85.05199       	90.85543       	94.38871       	83.533455      	98.03814       	95.274734      	80.30357       	93.129654      	93.67278       	83.26578       	91.66276       	97.607735      	81.86504       	93.7551        	90.6078        	86.121735      	97.51429       	87.72363       	85.409546      	98.194496      	84.96269       	89.00358       	100.41688      	87.815865      	85.195244      	99.933784      	90.66371       	89.65947       	99.936615      	87.398384      	90.83896       	95.2231        	88.037964      	92.91275       	94.37816       	85.85899       	93.72409       	97.766045      	85.1305        	92.54716       	99.50862       	85.63517       	90.35982       	91.259155      	89.40955       	94.76376       	90.77515       	84.48314       	93.8345        	90.05865       	82.99724       	95.50971       	87.112114      	84.9794        	92.215836      	84.29229       	85.49177       	93.42924       	82.89591       	83.79115       	91.85681       	83.06795       	83.72119       	91.76946       	79.2225        	85.037224      	89.83526       	80.06426       	87.465256      	90.42026       	76.75182       	83.55118       	92.09813       	83.99126       	90.25102       	99.49328       	95.93586       	109.551674     	111.31947      	108.76013      	118.613525     	117.92062      	106.25216      	114.570366     	112.8888       	95.874565      	94.44758       	97.78166       	91.91646       	91.05165       	92.66153       	95.173996      	
89.76673       	86.244835      	88.49061       	85.12302       	86.56247       	88.0678        	84.61591       	83.62709       	84.4864        	86.78587       	88.101776      	83.1759        	84.5299        	89.670685      	84.65733       	83.54833       	89.0936        	91.326294      	80.735886      	84.89242       	90.339775      	88.04191       	84.80688       	86.18002       	86.313065      	85.40685       	85.090256      	90.36976       	88.29394       	83.59612       	88.78905       	90.934204      	86.74167       	85.90332       	94.875084      	88.29322       	84.838005      	94.19948       	93.30128       	88.35795       	90.452194      	89.49907       	92.613144      	93.717636      	87.699425      	92.61635       	95.18947       	86.73615       	86.82838       	91.4242        	92.38415       	89.11455       	89.52168       	90.939545      	86.95161       	91.23078       	92.44714       	85.7444        	89.58687       	91.427605      	86.48998       	90.21593       	88.4884        	89.35311       	86.57335       	88.05416       	87.32978       	92.031235      	84.30315       	84.8368        	91.12542       	85.72156       	86.4566        	87.600784      	88.76193       	83.33341       	87.97705       	88.65223       	88.61854       	88.25757       	85.79671       	92.4187        	96.57931       	90.943535      	100.19713      	105.72159      	104.94123      	107.273506     	117.343346     	111.06876      	108.599655     	111.52682      	106.852066     	102.662384     	99.265785      	97.84258       	100.806046     	102.8293       	102.28201      	99.72425       	
91.49378       	93.55941       	89.34077       	89.661         	90.63351       	97.83488       	89.60123       	86.95224       	96.23283       	90.163345      	86.875114      	94.37369       	93.584305      	85.558945      	93.414276      	90.61471       	89.658745      	96.96048       	86.83366       	88.88097       	97.060165      	83.85057       	92.491325      	97.34594       	83.342         	90.92714       	98.48341       	85.850815      	92.31703       	100.442856     	84.97983       	91.80079       	97.46577       	88.702934      	95.243256      	94.36586       	85.03553       	98.80302       	97.51018       	82.63747       	99.22087       	96.988106      	79.49449       	94.705574      	93.52035       	90.265144      	94.49782       	94.6313        	89.611465      	93.076485      	93.40142       	92.60807       	95.51799       	89.6748        	92.15959       	94.33748       	91.7955        	90.5666        	94.589035      	93.08772       	84.22635       	91.97429       	94.89015       	87.569374      	87.49923       	92.98074       	87.51187       	87.279205      	92.40377       	86.96675       	87.55373       	86.67704       	87.86844       	94.22318       	86.34949       	82.141846      	94.09773       	89.213776      	82.00898       	93.76189       	90.13904       	85.19157       	93.632675      	96.445854      	91.91664       	95.30771       	94.06735       	96.54053       	108.10165      	100.88079      	95.7565        	112.260345     	94.88888       	86.819916      	101.76793      	95.55354       	90.469284      	95.35865       	98.054405      	99.6268        	
87.6122        	96.19738       	90.430984      	86.505974      	96.5207        	87.746735      	85.48042       	89.794876      	88.51569       	92.191444      	90.29927       	82.95463       	91.07832       	92.98498       	83.80232       	87.883736      	95.43869       	85.8524        	83.54626       	91.87243       	91.42238       	85.35802       	86.64346       	90.46304       	87.93924       	90.0996        	88.23007       	92.13382       	92.10738       	82.412766      	92.70952       	97.77044       	87.65949       	88.50499       	99.08375       	90.94727       	85.073105      	100.203354     	90.80179       	88.71275       	94.35815       	95.159615      	95.73036       	92.74828       	89.12983       	96.93102       	97.33163       	87.49817       	95.282875      	99.52638       	84.82581       	89.86495       	93.4518        	88.23241       	98.32787       	90.64868       	88.07553       	93.990875      	89.50109       	91.00948       	94.25105       	90.29732       	88.5002        	96.80035       	87.73998       	92.67997       	97.61463       	87.88335       	86.19955       	93.51424       	93.17363       	86.50339       	89.62369       	91.54251       	88.12347       	88.63117       	90.963936      	90.95239       	90.53134       	86.070145      	90.72843       	98.392105      	90.46297       	88.22198       	101.62669      	96.96802       	90.527664      	103.80861      	100.75661      	91.71546       	99.936646      	102.462326     	95.922966      	95.963715      	96.76881       	96.18665       	98.573524      	99.13282       	96.20784       	93.53598       	
93.64605       	94.97489       	90.67894       	94.069         	93.38429       	93.12572       	90.50788       	92.975044      	91.67902       	92.78499       	95.05347       	88.943306      	92.42158       	95.158455      	90.33391       	95.77809       	91.99594       	92.15116       	94.762695      	95.372086      	90.81744       	96.65343       	94.65355       	89.1099        	91.389946      	97.783394      	95.21532       	91.27282       	94.27507       	92.57202       	92.81701       	96.888115      	91.50989       	95.11606       	94.97982       	90.091705      	95.152794      	95.763054      	93.1645        	93.714035      	95.77526       	92.676384      	96.84871       	96.52624       	90.4263        	95.67033       	95.04639       	94.17212       	97.289505      	92.29943       	93.16016       	98.203125      	92.555176      	92.66432       	98.61503       	93.93867       	88.02292       	93.976074      	94.66252       	95.121574      	92.07708       	89.8166        	94.05376       	92.423676      	89.8228        	95.27204       	97.58381       	87.45846       	95.55033       	97.71008       	86.98567       	95.18354       	95.43806       	93.93682       	89.98799       	93.26685       	94.73083       	96.63194       	90.044716      	91.43403       	99.0255        	90.50138       	91.17471       	98.7382        	95.836395      	90.9058        	97.14073       	101.943306     	97.80789       	98.255905      	97.761024      	100.67476      	99.33687       	92.619865      	99.86626       	100.8143       	92.46103       	88.99373       	88.89054       	93.523125      	
88.871826      	95.49293       	92.87907       	86.3394        	91.97103       	95.78539       	87.40316       	87.50239       	95.547325      	87.46461       	86.5345        	89.24332       	90.80758       	95.35131       	85.910904      	87.03984       	97.34785       	85.37664       	86.599014      	97.28167       	89.13862       	85.09465       	92.023834      	94.20353       	88.19722       	90.59127       	91.85451       	91.27828       	91.55443       	89.89704       	95.97444       	92.687584      	86.13907       	92.73947       	97.668755      	90.623116      	87.798584      	97.850494      	93.204155      	86.529495      	98.83621       	94.16127       	89.55802       	91.08277       	98.83776       	94.912704      	91.008316      	92.36303       	96.89251       	95.27088       	93.0185        	94.37247       	97.99735       	95.82194       	86.76561       	93.15408       	97.26082       	94.48226       	89.59767       	94.76713       	90.846054      	91.09905       	98.396065      	91.096954      	90.42772       	95.746056      	90.91614       	91.47108       	93.97877       	92.754486      	88.40602       	93.674164      	90.850006      	93.5992        	95.69776       	87.17319       	92.78956       	94.797676      	90.78401       	94.15755       	95.923836      	91.60572       	93.485146      	98.4012        	92.98436       	96.9355        	98.7953        	93.88302       	94.521675      	99.01632       	100.57734      	97.40681       	97.34212       	94.87276       	96.536064      	99.821884      	97.003586      	92.71595       	92.838554      	96.33128       	
95.8682        	95.52816       	97.11285       	96.39361       	96.13712       	98.41529       	93.711395      	93.75431       	98.232056      	99.23128       	93.84521       	96.265854      	99.43514       	93.53381       	100.39489      	96.071175      	98.35295       	95.13219       	96.6571        	100.116035     	99.09266       	95.92217       	96.69864       	98.71599       	98.322174      	96.42692       	100.44496      	95.52184       	98.02918       	98.21888       	96.69689       	96.94949       	96.441536      	93.87587       	93.18526       	98.27501       	98.85973       	95.94189       	94.893524      	99.082436      	97.724236      	95.07687       	96.361626      	97.825165      	97.11784       	94.20537       	95.57821       	96.56361       	98.98385       	93.053696      	93.86585       	97.12878       	88.6635        	94.85505       	97.18696       	86.512245      	93.34096       	96.09204       	87.590805      	93.076775      	94.63533       	88.65672       	93.54358       	88.821365      	92.130585      	96.23741       	85.6623        	91.81823       	96.06365       	87.83168       	89.15019       	98.93518       	88.04613       	85.50366       	93.66142       	91.275505      	89.20372       	89.466484      	91.034515      	90.81359       	90.9644        	89.93173       	95.262985      	94.53926       	85.17746       	92.51826       	93.23726       	94.107124      	92.91491       	96.28216       	95.18255       	87.70475       	96.08664       	98.16889       	91.177414      	90.19115       	95.2057        	97.15711       	94.877594      	93.42699       	
85.95731       	94.7507        	95.994125      	92.239334      	88.26217       	94.57149       	89.75204       	87.7982        	95.82492       	91.072586      	87.63388       	93.39787       	92.6527        	90.60347       	89.41572       	90.18959       	91.107895      	89.276215      	89.69714       	94.62015       	92.14722       	87.48657       	87.49517       	90.79682       	94.589516      	90.289444      	89.05639       	93.39568       	90.91524       	88.02705       	95.17242       	94.41154       	88.313034      	91.89781       	93.12843       	95.767044      	91.64371       	89.54555       	95.25117       	94.1235        	89.23569       	96.68079       	96.249016      	87.52416       	94.61418       	94.03988       	92.77137       	95.10269       	92.54469       	93.10458       	93.3525        	94.07369       	97.12625       	95.14354       	91.444016      	93.6784        	95.87499       	94.70549       	92.62845       	98.37301       	93.24449       	88.59655       	96.13801       	97.68995       	90.86072       	93.308365      	96.942215      	91.912796      	93.981125      	93.51341       	93.61983       	96.30915       	88.0361        	88.38839       	96.585625      	94.85676       	90.9653        	95.60635       	92.528496      	88.548935      	98.762825      	92.00607       	89.36053       	97.462715      	94.26761       	90.87357       	94.42871       	97.768875      	89.9967        	94.13978       	94.81331       	96.28109       	97.857796      	88.75656       	95.431595      	98.04546       	94.83142       	91.20334       	90.34892       	93.498535      	
93.72313       	96.99879       	88.60849       	98.2116        	99.63893       	89.189         	95.42074       	99.69254       	89.815216      	92.04251       	97.92809       	96.05104       	95.061386      	93.169914      	92.83606       	99.23155       	93.68198       	88.665665      	99.619064      	95.3378        	84.01207       	98.52927       	100.23101      	85.26625       	93.61024       	97.35267       	91.06125       	98.141754      	92.22859       	95.194695      	99.28154       	91.923965      	91.54459       	107.81569      	89.020836      	85.00603       	101.97857      	90.11413       	91.45377       	98.63793       	94.38301       	91.72013       	94.43026       	90.93792       	98.02634       	95.83436       	86.707756      	99.421394      	95.41284       	88.55009       	98.291985      	96.573524      	90.82496       	91.51161       	98.73129       	93.66403       	93.70338       	91.30157       	92.54544       	98.5387        	87.28487       	95.07646       	100.24378      	86.972305      	88.27652       	102.62615      	90.58568       	82.50563       	97.984344      	92.575005      	87.117256      	96.53682       	85.84927       	93.46984       	96.48087       	83.665436      	95.46805       	103.283325     	79.12182       	91.04408       	99.6013        	83.58988       	93.890755      	100.59891      	85.63838       	92.58986       	97.38826       	90.72829       	95.56574       	96.29483       	89.85808       	96.97782       	97.64262       	90.36205       	96.40109       	102.76482      	91.69441       	86.783485      	88.87155       	92.262054      	
91.296684      	96.28737       	97.2646        	99.95191       	89.54696       	93.46956       	105.314926     	94.14364       	88.18099       	106.84113      	95.5758        	87.108116      	95.50762       	95.363945      	98.50748       	94.40947       	89.11466       	98.18531       	97.488785      	92.27745       	95.93022       	101.64827      	90.76929       	94.08556       	100.96452      	95.2599        	95.97685       	96.1539        	95.84129       	98.30778       	93.768814      	96.448135      	99.76065       	95.39366       	90.79784       	101.47823      	98.5693        	88.911285      	97.90996       	100.52466      	92.57297       	98.06904       	100.94634      	90.8883        	100.714806     	97.89059       	95.14098       	103.36551      	94.46119       	91.73908       	98.50324       	96.63144       	92.9205        	100.71468      	95.90841       	92.03413       	96.26201       	97.773125      	93.184494      	95.2539        	96.65223       	88.873375      	93.69737       	97.667656      	91.82722       	92.55159       	95.63248       	90.54968       	95.809685      	93.74763       	89.45968       	95.35993       	92.564606      	88.76136       	96.89833       	93.96285       	86.66319       	94.871704      	92.67554       	90.85759       	93.802246      	90.62221       	92.76122       	94.03278       	90.19675       	94.538284      	96.77552       	89.638466      	91.35936       	94.10194       	91.398834      	94.92073       	96.486115      	89.926865      	96.05384       	94.051056      	93.862076      	96.62548       	94.85228       	97.828735      	
86.40285       	87.9337        	87.43864       	88.76413       	84.108154      	90.727615      	87.95352       	82.70501       	89.867134      	91.93396       	85.759476      	84.02868       	91.37497       	88.290245      	85.11069       	89.10654       	85.931305      	86.088974      	87.372345      	85.52902       	87.68773       	86.58744       	80.36284       	83.97012       	82.67587       	84.49243       	88.51385       	84.33824       	81.3094        	87.930214      	85.40412       	83.31064       	86.377304      	86.413086      	86.67598       	84.630585      	85.25845       	91.53263       	88.69148       	81.35837       	90.26031       	89.65027       	85.76264       	90.95384       	90.63123       	86.80185       	88.52988       	87.64317       	90.3284        	93.205414      	87.12007       	91.50627       	98.032684      	88.36858       	92.64904       	98.58422       	91.90251       	87.1296        	95.40304       	96.29208       	91.007256      	91.412056      	92.88962       	92.89567       	91.97025       	93.42038       	95.49097       	91.24657       	91.66166       	92.10214       	93.149414      	95.92886       	94.353935      	93.560455      	93.86483       	89.82817       	98.98332       	96.08473       	90.43663       	96.836845      	98.23398       	94.10945       	96.11902       	101.14132      	95.39689       	94.77096       	102.12021      	101.7194       	98.930046      	97.41862       	100.80517      	103.03085      	103.92635      	100.452896     	101.71319      	106.74494      	103.47484      	98.51014       	96.3446        	96.56347       	
88.74604       	100.25807      	87.8206        	99.18895       	99.74443       	91.46151       	94.63529       	95.476974      	97.22887       	102.75014      	94.42223       	91.511734      	102.11853      	98.4329        	90.95244       	102.378044     	97.41903       	94.234184      	98.03348       	101.30097      	99.23092       	98.55114       	97.230385      	99.8745        	100.51065      	97.85946       	100.639854     	102.50441      	99.629395      	97.901054      	102.75307      	102.231186     	101.0769       	101.502655     	102.10368      	97.331825      	103.85803      	104.0688       	101.18977      	101.55767      	102.59802      	104.58629      	100.406136     	103.97426      	102.39238      	101.3878       	100.226654     	103.03833      	106.33825      	99.50076       	100.071205     	104.52333      	100.352554     	104.79985      	99.96453       	102.60893      	102.36098      	102.88374      	101.232        	106.34335      	101.82465      	97.60429       	102.65843      	98.934685      	103.224495     	103.18954      	99.3247        	98.60845       	103.08351      	98.92599       	96.684364      	103.67175      	97.085075      	100.21341      	98.07512       	97.62605       	102.69543      	97.36762       	94.25108       	100.68225      	99.08819       	97.581635      	98.124435      	98.90222       	97.41725       	96.54915       	97.727646      	99.127         	98.972916      	93.83085       	96.54744       	98.44764       	97.34986       	98.74194       	98.4537        	95.35551       	94.96032       	95.61972       	98.086174      	96.96473       	
98.47326       	101.1805       	101.47188      	98.20494       	106.729706     	98.47731       	99.38537       	106.80985      	98.625435      	101.262314     	109.11971      	99.73945       	98.89513       	108.99308      	99.35927       	100.0632       	109.921455     	100.103966     	99.76074       	107.81278      	106.62901      	102.27815      	106.19055      	104.77686      	103.02465      	109.975815     	101.929886     	107.58952      	110.49989      	101.8739       	101.66405      	110.10913      	105.4618       	104.95707      	110.22335      	101.87428      	104.16348      	110.528        	101.5481       	103.05388      	105.79615      	103.08362      	100.55848      	102.074295     	100.792145     	103.88245      	97.59689       	94.13042       	99.53566       	100.969765     	91.967316      	92.36948       	97.824455      	91.67557       	88.61817       	89.9571        	92.01498       	91.979965      	82.80013       	87.29581       	86.75923       	79.80436       	86.62924       	83.94744       	79.389275      	80.9191        	79.886475      	77.23399       	81.88436       	75.72997       	74.45621       	80.06438       	74.05108       	72.00109       	79.977875      	72.23893       	67.59738       	79.75431       	70.82933       	68.92131       	79.24958       	70.72622       	67.19288       	75.22696       	73.42487       	70.14018       	76.48864       	70.38462       	74.474045      	78.23106       	69.47885       	74.71972       	83.585075      	68.78201       	71.53352       	78.83582       	76.86956       	73.31503       	74.297005      	74.59063       	
81.66283       	79.308685      	75.79027       	86.006584      	79.6265        	72.41103       	74.79595       	81.58066       	77.17402       	74.223076      	79.8619        	75.44367       	72.54987       	78.57471       	75.55457       	68.94739       	74.309494      	73.43885       	69.4751        	74.36822       	68.448524      	71.56393       	70.10113       	65.75336       	73.30082       	72.93261       	62.160114      	68.02735       	73.80891       	65.52295       	68.67          	73.17793       	67.076996      	70.26539       	70.83847       	70.598526      	76.13445       	69.80861       	68.14505       	77.45789       	77.567696      	66.64974       	76.71054       	81.880806      	71.50799       	74.06509       	76.59663       	78.241104      	81.91911       	75.111404      	79.476616      	83.87165       	77.08741       	84.79553       	86.32947       	79.76578       	84.86069       	87.436035      	83.474396      	90.62655       	88.997246      	86.927444      	91.72779       	87.95243       	90.90285       	97.148834      	89.94339       	90.74161       	101.72726      	92.688324      	93.99847       	103.54203      	96.24224       	95.3935        	108.62456      	102.59412      	100.65732      	107.67945      	102.222725     	104.25308      	113.88921      	102.21074      	108.61914      	116.54469      	102.749596     	110.65771      	119.564995     	106.210976     	109.85616      	118.1201       	112.27404      	115.15344      	119.18624      	108.311676     	117.03008      	122.52132      	112.79849      	107.32922      	111.82948      	117.88631      	
89.083664      	91.177605      	87.55423       	97.64864       	88.40445       	91.6352        	95.17506       	90.158134      	95.93969       	95.789185      	87.04365       	90.86171       	93.9805        	89.91207       	91.62347       	96.240074      	88.74123       	92.97334       	96.34647       	87.982056      	95.05254       	93.75293       	88.06355       	92.26875       	91.95263       	90.743805      	95.43355       	91.540535      	88.19129       	95.43824       	94.8226        	88.74953       	95.161934      	93.87768       	90.21315       	91.90449       	95.9716        	92.489716      	95.16647       	91.39461       	91.49847       	97.960556      	90.59703       	91.66626       	97.316         	93.070366      	90.274         	101.90418      	95.656265      	90.551926      	96.646255      	95.15194       	95.12141       	96.71198       	92.71033       	93.833984      	101.433754     	90.640396      	93.994316      	103.477486     	88.79566       	88.895645      	95.032104      	89.28242       	96.86905       	96.707634      	86.23408       	94.386734      	96.32417       	86.44104       	96.7367        	94.84794       	86.91057       	95.83727       	93.954704      	86.531204      	96.5617        	95.94504       	83.89803       	99.54334       	90.565865      	86.40526       	104.710434     	91.70844       	85.528145      	102.15852      	91.551384      	90.532555      	101.51229      	88.04277       	89.3916        	103.35239      	89.06052       	91.70968       	105.3462       	92.55693       	83.10225       	91.80034       	100.127        	101.321945     	
92.03499       	97.56558       	90.65187       	100.13565      	96.4104        	90.724686      	99.56832       	94.25693       	92.021576      	101.315186     	93.8652        	88.79932       	99.51409       	92.56392       	89.35779       	99.02021       	91.00248       	89.25816       	97.62013       	91.61632       	90.86469       	97.13521       	88.868286      	88.39087       	90.61344       	90.39408       	93.11931       	93.37645       	85.23604       	91.65763       	93.283394      	85.37008       	91.114426      	94.93649       	86.48406       	89.05062       	91.61693       	87.97674       	92.98869       	90.7216        	85.83288       	93.700714      	87.92421       	88.45199       	97.75544       	87.12984       	84.90131       	98.41462       	89.182526      	86.51564       	97.84832       	91.79211       	87.026         	93.932076      	90.92817       	91.131         	93.38811       	86.56481       	91.5426        	94.581024      	84.990204      	92.07509       	97.04869       	85.5511        	89.03162       	97.63817       	89.685875      	88.237564      	96.02657       	88.459946      	87.606606      	96.4303        	90.979324      	91.28976       	95.25099       	86.34391       	91.83565       	101.23226      	81.87995       	94.409836      	102.66338      	82.30763       	88.54293       	96.91849       	88.675446      	94.73954       	97.30942       	85.863144      	94.07403       	98.20386       	87.0426        	96.87446       	99.21736       	88.577194      	93.8815        	99.11145       	92.95401       	90.11263       	92.389565      	94.12207       	
96.142426      	90.634995      	95.5885        	90.021225      	90.83399       	94.34673       	88.88349       	94.67216       	95.94189       	86.46981       	91.09651       	97.65535       	88.28414       	91.39721       	96.60404       	88.14417       	91.052765      	93.81403       	92.21556       	95.31448       	92.62057       	89.85716       	92.90706       	97.93172       	90.25703       	93.218346      	98.6186        	88.81076       	89.84075       	93.00469       	94.56764       	95.120514      	91.73422       	92.79182       	93.98607       	94.237755      	93.599236      	91.6615        	96.3507        	93.23805       	89.01237       	95.668144      	96.11137       	89.491135      	94.53289       	93.63122       	90.23775       	97.24107       	95.62271       	90.137955      	95.71635       	91.32197       	88.97466       	98.920616      	88.92441       	90.28943       	95.32478       	91.00522       	90.10958       	97.544014      	89.13152       	87.88282       	95.466705      	90.039764      	91.175385      	92.06238       	87.781364      	93.083916      	95.06243       	87.835976      	90.75087       	97.39494       	85.02615       	87.27616       	89.49123       	90.95211       	92.21596       	87.42133       	86.622955      	90.44819       	88.036896      	87.71062       	88.368706      	89.57825       	88.05848       	88.65656       	89.39586       	87.90032       	91.808876      	86.45436       	90.160446      	90.51831       	87.60744       	93.27771       	93.007065      	88.06161       	87.669685      	90.86149       	92.70772       	91.25505       	
96.35454       	88.11384       	92.50956       	98.665375      	88.15826       	91.61286       	100.96028      	87.49178       	93.79952       	96.2716        	88.30062       	96.51061       	94.27222       	84.31871       	95.555626      	95.08278       	86.81613       	96.010345      	93.19815       	86.77319       	96.65113       	93.198494      	87.82169       	98.3662        	92.70523       	87.61329       	95.08531       	93.74671       	92.75293       	94.51076       	93.62788       	92.69312       	92.93781       	91.53934       	95.484695      	96.70987       	88.69104       	91.21595       	97.42813       	91.470215      	92.45525       	95.36571       	95.808624      	92.242386      	93.11113       	96.92245       	98.256096      	92.39779       	92.59401       	96.45904       	92.84952       	94.286865      	96.00676       	94.43401       	95.39387       	91.92431       	94.45859       	98.6765        	94.174355      	89.78002       	98.682365      	92.47661       	89.550934      	100.012695     	91.54327       	88.753456      	98.22412       	92.393196      	87.2057        	99.62538       	91.813324      	90.26616       	95.56243       	89.80146       	93.64019       	94.56628       	86.24206       	90.22641       	97.836494      	88.70326       	89.504845      	98.6908        	86.7332        	87.375694      	98.32437       	89.16063       	90.58194       	93.314095      	87.792816      	93.63135       	95.58458       	87.2098        	94.24891       	98.1878        	85.579865      	91.53803       	103.57299      	100.16509      	91.42596       	85.51036       	
94.34461       	89.09969       	92.64791       	87.19882       	90.867096      	95.4633        	84.84651       	86.75505       	95.106895      	86.55303       	88.0703        	94.82254       	86.53886       	88.97469       	94.65878       	87.955284      	91.61293       	93.26099       	84.486664      	87.83154       	92.62626       	88.46093       	92.908394      	91.04532       	86.29789       	92.845665      	93.61101       	85.16715       	92.636475      	96.53743       	85.00407       	90.64757       	93.6476        	92.60914       	91.268036      	90.416985      	89.33264       	92.51928       	93.89748       	86.88455       	95.8639        	92.02124       	86.539474      	96.5132        	95.91004       	90.941666      	93.76986       	94.45085       	90.76309       	94.447685      	95.4972        	89.52071       	95.36369       	93.7469        	92.15797       	100.42387      	93.05568       	88.492905      	97.94674       	95.79091       	92.96123       	96.65388       	94.98466       	92.58653       	97.81639       	93.08312       	94.889336      	96.30024       	89.5363        	90.52463       	96.31817       	94.02457       	94.18743       	96.794395      	91.6252        	94.61975       	99.13266       	91.683685      	94.72539       	99.669716      	93.03629       	93.37969       	98.24667       	98.26237       	97.48862       	95.57071       	95.79687       	94.91093       	99.33374       	100.2146       	96.7345        	99.57008       	99.26517       	97.51453       	98.35424       	101.78536      	99.277954      	101.64955      	99.95919       	99.75685       	
95.39818       	92.32448       	92.42692       	89.12735       	95.55012       	91.40514       	86.64753       	90.74141       	89.00233       	89.99953       	90.08419       	87.30081       	89.23015       	87.17708       	84.69238       	92.131134      	90.18763       	81.90245       	87.386635      	92.1348        	83.53235       	83.19604       	90.25764       	82.85521       	85.38893       	88.294624      	85.18613       	85.64903       	85.67119       	78.74184       	81.150314      	86.2483        	81.0241        	83.6906        	83.16839       	76.76483       	82.37751       	85.568535      	78.525276      	80.201614      	89.74369       	79.24702       	79.92072       	84.90152       	85.79515       	84.26058       	80.92278       	83.71111       	84.58298       	83.96717       	85.00748       	85.08354       	86.71709       	84.12413       	80.84481       	88.66451       	86.98194       	83.03026       	87.170654      	85.77173       	83.2632        	90.149734      	89.11844       	84.28281       	90.15085       	87.96422       	88.89339       	93.49533       	89.25676       	87.4679        	93.689865      	90.458015      	91.87939       	98.69823       	88.91885       	92.08898       	99.11229       	93.93876       	96.38554       	99.030106      	94.39197       	99.76502       	103.514725     	94.94987       	102.01987      	106.67726      	94.92396       	101.00494      	107.89894      	104.36231      	104.68895      	107.83991      	102.450386     	107.33969      	108.25345      	103.679726     	105.307205     	111.914185     	111.771225     	110.80273      	
90.25583       	86.25309       	88.74761       	89.15116       	89.68617       	85.312584      	90.85066       	91.10357       	82.50851       	83.04          	88.5674        	90.06676       	86.10357       	87.58619       	87.93623       	85.132126      	86.70585       	90.27135       	87.77394       	85.47673       	89.640656      	87.473434      	88.3497        	88.1012        	87.81071       	91.22735       	86.206825      	84.99881       	93.10088       	91.08955       	83.97651       	91.18062       	90.611374      	83.042         	94.06754       	93.49536       	85.152954      	92.1818        	90.33522       	86.81263       	94.21522       	87.815384      	85.9883        	97.27682       	84.797035      	88.348495      	98.96493       	83.26214       	86.53109       	98.09297       	84.495445      	89.1411        	97.82038       	84.85845       	89.495186      	95.57551       	86.38637       	91.75374       	93.906975      	81.78887       	93.07384       	96.46516       	80.311295      	88.71508       	98.95326       	76.5034        	87.614586      	88.48197       	82.727295      	93.382         	87.309326      	80.67972       	91.22913       	85.761505      	83.550186      	92.19444       	86.69693       	83.12403       	91.39916       	84.85108       	87.3133        	91.88066       	83.007256      	84.87701       	87.68675       	84.39705       	87.57144       	90.18307       	82.90367       	88.421555      	93.57441       	85.290474      	91.0915        	92.679985      	85.867805      	89.99263       	97.20307       	97.365234      	91.80151       	88.36861       	
91.39945       	95.64774       	94.573715      	93.88365       	93.07324       	92.00282       	94.06535       	92.37814       	93.835686      	93.046265      	92.10946       	90.18741       	95.666016      	93.96419       	91.29973       	92.24433       	92.84222       	92.45752       	94.70623       	92.79297       	90.95133       	94.18164       	93.360855      	93.21738       	98.06065       	91.385666      	93.211296      	96.001305      	95.2232        	95.909134      	96.781815      	93.73634       	96.61925       	100.39775      	92.95052       	97.40189       	100.46196      	92.49955       	91.32537       	96.61874       	100.63823      	95.62289       	94.92962       	96.681656      	96.39869       	97.880745      	93.12638       	97.94197       	98.49893       	95.436615      	92.76602       	100.06811      	99.930084      	93.25578       	97.918686      	99.520065      	91.52056       	96.15539       	97.34765       	92.11976       	91.77394       	94.63663       	93.763794      	91.35494       	94.88915       	89.93042       	95.42931       	87.929405      	90.3531        	97.824104      	87.99151       	85.55785       	94.741325      	92.53065       	86.808914      	91.085976      	92.11573       	88.53189       	88.882675      	90.07266       	94.29358       	94.00493       	84.582634      	92.44878       	97.52848       	86.30336       	88.47218       	98.62695       	93.92105       	86.67006       	93.83137       	94.80356       	98.620285      	98.085396      	90.401535      	94.60572       	96.82342       	92.995155      	93.45801       	91.687325      	
88.13655       	91.29419       	88.040245      	92.511406      	92.18239       	87.58748       	90.56145       	90.19205       	87.42188       	93.15328       	88.35542       	87.499435      	92.51355       	88.146904      	89.56159       	92.54233       	87.954216      	85.619385      	90.464165      	91.27132       	87.431885      	89.57331       	91.29813       	88.30946       	88.20088       	91.643         	92.998276      	91.46041       	90.02535       	91.58973       	95.1091        	92.29494       	91.69999       	97.82387       	95.594765      	88.70468       	92.74991       	93.188156      	96.218765      	95.5097        	90.21727       	94.84077       	94.187065      	95.08915       	96.74068       	94.35615       	97.38074       	99.27877       	90.263115      	99.199165      	102.70562      	90.01305       	98.74132       	99.85833       	91.707596      	98.97961       	97.643555      	90.81556       	98.677284      	94.149956      	87.125984      	101.7808       	89.81636       	87.63827       	98.41488       	92.922806      	87.293045      	99.5164        	92.097404      	86.18426       	97.82204       	92.43599       	88.01555       	98.04721       	88.32914       	90.40488       	100.01114      	87.597885      	88.24887       	100.624565     	86.35533       	84.82614       	93.98092       	90.88808       	88.25041       	94.70903       	89.89926       	91.478775      	93.308304      	90.072464      	93.330185      	95.70569       	89.79483       	89.51555       	98.54232       	97.20612       	92.96815       	93.71535       	94.009796      	100.729485     	
91.97348       	94.28675       	87.33653       	99.74635       	92.12059       	89.73235       	102.64471      	93.645195      	86.80865       	100.515434     	95.81457       	88.36298       	98.46031       	94.214035      	90.082535      	96.26884       	94.282486      	91.63237       	96.255745      	89.64987       	91.228516      	99.31438       	91.77454       	89.61454       	101.6099       	94.49185       	89.46015       	95.71132       	94.72751       	94.83131       	100.581314     	92.82033       	96.29717       	102.203705     	94.712654      	96.20751       	99.09138       	94.54956       	96.93903       	99.20891       	91.059135      	99.55627       	100.48862      	89.7555        	99.27141       	98.88649       	93.46879       	99.39804       	97.27597       	91.60867       	102.20705      	97.84187       	88.995575      	106.87203      	95.70989       	89.74604       	99.82429       	94.23144       	92.26014       	101.406525     	95.80385       	89.26617       	99.50377       	94.74378       	91.83196       	100.352455     	88.283775      	92.105034      	99.35822       	89.80307       	90.48237       	100.88032      	89.93486       	86.63133       	94.630905      	92.01319       	93.057655      	94.33568       	90.28942       	91.75058       	93.592606      	90.02668       	94.284775      	95.16686       	89.450455      	90.965164      	95.59948       	93.446396      	93.80751       	96.55668       	90.99825       	97.929214      	94.53621       	92.02437       	101.33775      	101.40681      	92.514984      	91.973625      	96.099365      	100.097115     	
91.17456       	91.89239       	87.28515       	102.495514     	90.21325       	81.16431       	96.975296      	93.41701       	86.999176      	98.35683       	90.55804       	85.30726       	99.35621       	91.29522       	85.152985      	99.882935      	88.7616        	86.70192       	98.40372       	90.442474      	89.47779       	100.35451      	85.351166      	88.91345       	99.34765       	93.05771       	91.083084      	100.22163      	93.03255       	93.82468       	101.56129      	91.94085       	100.93222      	106.0356       	90.45049       	99.57921       	105.66686      	92.9086        	100.16234      	106.07492      	92.80504       	103.26612      	101.87879      	94.06965       	107.99698      	101.34265      	92.54716       	107.74183      	101.98902      	95.877266      	108.758965     	102.95125      	97.804596      	107.315506     	103.855484     	100.49547      	106.141884     	98.2063        	99.48701       	106.737305     	95.91333       	98.89238       	106.968765     	95.70501       	94.3061        	103.93395      	95.95108       	94.576324      	102.33438      	95.06418       	92.62486       	100.6348       	95.45431       	94.8318        	97.83          	92.149345      	94.62951       	100.19348      	92.59826       	93.409874      	101.73188      	90.618576      	89.76073       	94.19671       	93.65822       	95.090904      	97.58915       	94.15871       	93.977264      	97.71741       	96.35824       	98.729774      	99.61986       	100.21922      	97.18778       	97.99277       	102.43824      	104.810356     	103.26476      	101.07793      	
100.237785     	95.6504        	103.0063       	91.094925      	92.23051       	101.07381      	92.656784      	95.105835      	99.81884       	92.23168       	93.38071       	97.00731       	93.54487       	96.292595      	95.1711        	91.43266       	97.46166       	99.11748       	87.51542       	98.31851       	100.62269      	87.42309       	88.86894       	95.582         	94.94835       	97.06701       	92.752914      	93.22629       	96.28294       	95.746         	95.31259       	96.58576       	97.745926      	94.40771       	96.84935       	94.405624      	97.899414      	98.92691       	95.04615       	97.74849       	96.866455      	92.90429       	101.004524     	96.49483       	92.64131       	99.83141       	98.85942       	92.94652       	98.21524       	101.97092      	91.87938       	98.06496       	96.87475       	98.14103       	100.89273      	94.64943       	93.13179       	96.77707       	91.48026       	91.80774       	101.058426     	87.24104       	89.68991       	97.429855      	90.82976       	88.53979       	95.864426      	90.031815      	87.801094      	93.7757        	91.047455      	89.52605       	92.8252        	87.491875      	90.01941       	98.11622       	86.582565      	87.64453       	100.73674      	83.24593       	84.41955       	90.9756        	90.00212       	90.32954       	90.78879       	87.271576      	88.9874        	96.9973        	89.605865      	89.73924       	99.687004      	92.714165      	93.28455       	99.468925      	98.42506       	96.26005       	99.07887       	100.51587      	99.23796       	97.64318       	
97.78931       	87.93141       	100.08355      	87.13379       	84.86803       	92.92555       	88.96449       	89.95873       	94.67513       	86.07103       	89.629814      	93.819984      	85.99756       	90.644615      	95.02558       	82.9465        	91.69427       	92.27109       	84.87233       	92.368904      	92.75655       	85.29032       	89.27841       	91.444244      	88.314835      	93.4027        	93.821655      	87.62198       	98.2987        	95.76526       	89.54907       	101.82174      	94.18056       	88.6148        	98.55931       	97.01734       	90.07556       	99.750885      	95.07609       	89.93951       	99.61989       	97.942665      	93.78248       	99.96696       	95.672         	94.379326      	103.91626      	97.272995      	93.929756      	104.82897      	98.71964       	89.87829       	100.47979      	100.91744      	94.79571       	100.55681      	93.45565       	89.19481       	99.14473       	92.236374      	91.1446        	95.94962       	92.8296        	87.9628        	93.69533       	91.157845      	89.995834      	94.29841       	85.5768        	86.61484       	90.73912       	86.92187       	87.31064       	89.390785      	85.92409       	86.88268       	86.116875      	85.51598       	89.03291       	84.55712       	85.84326       	83.61748       	82.09428       	86.56349       	84.9442        	83.622444      	86.263374      	88.9486        	84.290115      	89.00179       	89.33891       	87.17518       	91.91659       	91.21679       	89.86961       	93.58699       	94.50738       	91.145584      	89.96575       	89.63378       	
98.17066       	84.97812       	96.44926       	97.62491       	85.39896       	90.887985      	95.077545      	88.655136      	94.666336      	93.13693       	84.811005      	93.353584      	94.23674       	85.22847       	95.44283       	92.344604      	87.40132       	91.41841       	91.519516      	89.13217       	96.357956      	89.86256       	88.33577       	95.43639       	90.90938       	91.80916       	99.05188       	90.281494      	92.46996       	98.15446       	91.9492        	98.362175      	99.15578       	92.41762       	96.19233       	101.97994      	93.1724        	95.41101       	101.868324     	92.46154       	100.11974      	98.635605      	97.04284       	101.955124     	101.315506     	94.885124      	101.031876     	103.97743      	97.12385       	101.41211      	103.75748      	98.120186      	98.83374       	105.057785     	100.3941       	100.083336     	97.06436       	91.88567       	100.62137      	97.84082       	92.893105      	98.156624      	95.182076      	88.64269       	98.01103       	97.12763       	87.554985      	94.25477       	95.43291       	90.601654      	95.42021       	90.15638       	90.936325      	96.363396      	90.50656       	87.32032       	98.897964      	91.16322       	84.05451       	92.717636      	87.61655       	91.35672       	92.937515      	86.81823       	89.73792       	89.70345       	90.49626       	94.25318       	91.412         	88.571625      	95.42305       	92.24285       	93.880684      	100.97636      	92.96282       	92.39401       	96.75127       	98.52904       	98.44322       	97.15728       	
90.86064       	89.72264       	90.06771       	95.57458       	87.12882       	84.776726      	92.4864        	88.41949       	87.76354       	90.585045      	90.18826       	87.28233       	85.73314       	90.874825      	90.481964      	84.516205      	89.72294       	89.34267       	82.323906      	89.9273        	90.61547       	85.44195       	86.36858       	86.82885       	87.53837       	92.00786       	89.11768       	87.56884       	94.88399       	89.184814      	91.33943       	100.94324      	92.69428       	88.57985       	100.86934      	97.58765       	91.25628       	99.801025      	95.559746      	97.84886       	98.19943       	96.81644       	100.07726      	100.83205      	92.32157       	96.67484       	100.52775      	97.89684       	98.40274       	102.838486     	100.01452      	96.88028       	99.71618       	105.08709      	96.16686       	99.20467       	103.02371      	89.040634      	100.45813      	100.61728      	93.73906       	95.52196       	96.08379       	91.00736       	94.55504       	97.76399       	85.171875      	97.19951       	94.93951       	85.72507       	99.54237       	93.958725      	84.354256      	95.95951       	93.92358       	88.4627        	93.11468       	92.05211       	88.114044      	95.87316       	89.64894       	88.67384       	98.79654       	87.6106        	85.261215      	93.65629       	93.72831       	90.70991       	98.03443       	92.66296       	92.36625       	97.61015       	96.26514       	97.959755      	100.14502      	96.998         	95.19506       	97.336845      	101.054276     	102.11736      	
95.00533       	90.32088       	88.97311       	90.34492       	89.31974       	93.48457       	91.05912       	86.492226      	92.74785       	87.01801       	88.083206      	96.4652        	88.41658       	83.24915       	97.048615      	89.02542       	79.88348       	96.56928       	88.86213       	82.20318       	91.37702       	86.444084      	88.9702        	93.98478       	82.70871       	91.331215      	94.854454      	81.87452       	92.28985       	102.95744      	83.07995       	91.32223       	103.49757      	87.14759       	95.96351       	102.95297      	86.809685      	95.17239       	100.68914      	90.72225       	98.652954      	100.98044      	87.87378       	105.89497      	103.33562      	86.560905      	105.59384      	105.97967      	86.81234       	102.31145      	101.777214     	94.4007        	104.80059      	102.111435     	94.96547       	102.26734      	95.38114       	92.85045       	102.124794     	91.147064      	92.11018       	98.548454      	93.21845       	91.0616        	99.93893       	91.26494       	87.99503       	93.73662       	91.81227       	92.450264      	92.01867       	89.45817       	89.28915       	90.869095      	87.150276      	94.15512       	94.80777       	81.70406       	90.61137       	94.83564       	84.138824      	88.754         	92.30323       	86.77429       	86.38582       	90.78488       	90.60733       	94.52607       	89.75587       	88.99726       	94.43893       	95.35422       	91.62098       	98.29419       	100.4345       	94.449295      	94.291794      	97.27931       	99.73982       	101.68389      	
93.45234       	90.78326       	89.03075       	91.69022       	93.303925      	90.86473       	92.72636       	89.935104      	93.16379       	93.25155       	88.31522       	93.209465      	94.97723       	83.596436      	87.08006       	92.97887       	90.24875       	89.59511       	88.062294      	87.94226       	88.35375       	89.6039        	89.36683       	87.83451       	92.3997        	89.26634       	89.51225       	92.19017       	94.49055       	93.767426      	92.10605       	94.94508       	93.85622       	96.4681        	95.97352       	93.479904      	98.13813       	97.09901       	93.6199        	100.57531      	101.21996      	92.70145       	98.52144       	100.27489      	97.57468       	100.32475      	98.39595       	97.85633       	102.69417      	98.426506      	99.164825      	106.29796      	96.781845      	96.1299        	100.04553      	101.02776      	97.998         	91.93138       	99.78899       	95.97954       	89.91473       	93.88405       	98.2716        	92.42191       	87.190346      	93.71205       	91.835014      	89.58086       	89.47204       	90.58724       	93.10465       	87.88684       	86.09956       	95.95905       	92.2784        	80.43029       	93.27042       	94.996735      	83.53132       	92.440056      	93.65902       	87.213455      	89.20544       	90.46292       	91.7487        	93.444145      	87.52356       	91.417145      	98.99279       	92.71866       	89.58522       	102.09203      	99.24273       	90.52519       	94.71278       	101.484634     	100.34946      	99.617065      	99.42036       	100.363754     	
90.644585      	93.29279       	91.6801        	85.33327       	92.43321       	88.62918       	88.617355      	90.47172       	89.40392       	90.55058       	84.01663       	87.92807       	94.29806       	86.42027       	82.22905       	92.30557       	88.83321       	80.63527       	91.00853       	91.21436       	83.1116        	84.30993       	91.13789       	88.30533       	85.41178       	89.65519       	89.627815      	91.71217       	90.51013       	88.25174       	99.59093       	90.75208       	88.55917       	92.95512       	95.19505       	95.23473       	94.58782       	96.591934      	92.553825      	94.638435      	101.058395     	95.06413       	94.057175      	98.92453       	98.292244      	95.701645      	98.39995       	100.77519      	96.37657       	97.952644      	99.15239       	103.817345     	98.396065      	94.48605       	100.560104     	100.45316      	93.577194      	92.51274       	102.41185      	90.27487       	91.44362       	96.83302       	93.22313       	91.564415      	90.65808       	89.76904       	94.534775      	89.86574       	88.63081       	94.26013       	89.11429       	86.45456       	95.67048       	90.97938       	80.39665       	92.9106        	90.1248        	84.29941       	93.689384      	85.35258       	87.34115       	92.46195       	84.7478        	85.24388       	96.29415       	83.481125      	81.68371       	94.50374       	88.097206      	90.19561       	95.16922       	90.27785       	91.996414      	95.06039       	95.2701        	95.21138       	98.40284       	98.34748       	95.11333       	94.32162       	
89.59371       	94.92624       	91.775764      	92.91106       	91.23494       	93.525505      	90.5066        	90.360825      	91.641045      	90.712234      	86.445564      	91.6377        	96.515205      	84.408806      	86.38361       	94.89774       	86.83841       	90.940254      	90.62435       	88.56449       	88.7315        	90.483635      	87.29007       	93.440926      	90.79911       	84.86288       	92.71025       	89.68514       	90.8565        	95.126114      	95.87721       	93.499916      	94.50838       	96.10864       	97.781456      	96.54077       	95.96768       	97.82691       	93.66389       	98.19141       	102.33549      	95.07251       	97.61837       	100.689255     	95.35976       	100.88269      	98.250275      	99.233246      	99.85989       	100.52402      	101.83598      	102.496574     	98.62493       	97.347374      	101.77717      	101.298294     	95.87842       	97.03084       	97.07329       	95.12686       	95.71821       	93.79076       	95.04825       	94.0501        	89.87341       	88.76451       	91.89224       	92.5358        	92.013016      	89.39657       	89.02373       	88.93502       	91.35633       	90.67895       	86.63839       	92.629196      	90.48412       	86.58753       	90.528206      	92.01286       	87.5336        	87.77365       	89.66208       	89.65815       	92.08239       	87.94058       	90.17769       	96.303474      	87.74476       	94.49614       	99.900665      	91.73012       	91.444176      	103.2466       	97.53787       	93.259796      	100.11907      	106.47546      	102.7976       	101.60086      	
96.497925      	93.773285      	98.61434       	88.88051       	91.80146       	97.98597       	87.20927       	88.826614      	98.99599       	88.18161       	92.53433       	93.86573       	85.82722       	94.33229       	92.113686      	81.92383       	93.398735      	92.51266       	81.605156      	95.60372       	91.65773       	80.76846       	92.106125      	91.16174       	84.83586       	94.53735       	89.84839       	85.10036       	100.960396     	91.08629       	88.6206        	106.990555     	91.42358       	87.909294      	99.925415      	95.347         	95.262314      	104.24531      	94.65589       	95.250336      	102.54004      	96.74094       	98.61586       	105.98398      	96.270905      	99.2703        	104.982285     	98.177536      	101.94203      	108.31295      	97.83448       	99.59358       	106.75728      	100.26549      	100.44306      	106.0124       	96.289215      	93.93334       	103.061615     	97.152756      	96.881744      	98.18427       	90.20198       	93.41136       	102.6545       	84.52204       	95.38067       	97.06229       	86.86695       	96.357086      	96.66763       	85.7117        	93.420296      	92.80591       	87.51926       	95.40217       	91.386154      	83.32832       	99.19473       	92.25306       	79.969185      	99.45552       	92.11392       	79.823326      	92.31147       	86.98296       	91.546265      	98.119835      	86.88944       	92.76285       	98.271         	90.54915       	97.7566        	100.40364      	92.17475       	95.35816       	100.45899      	100.05234      	98.20346       	97.10503       	
95.34211       	88.562614      	90.55891       	92.44073       	88.00971       	95.02078       	86.9593        	85.641716      	90.211006      	87.651436      	89.051254      	90.638115      	86.0435        	86.012085      	90.307175      	86.50253       	84.380035      	93.60892       	84.84795       	81.48803       	93.253204      	86.46819       	84.90416       	88.9337        	86.87402       	87.47669       	95.1313        	88.905525      	88.14082       	98.72446       	89.51439       	91.65475       	102.949234     	91.81325       	91.40748       	102.25815      	93.39316       	93.589775      	101.53956      	93.13506       	97.767426      	103.0455       	91.79977       	98.795784      	104.79509      	88.64265       	96.31718       	97.71445       	95.34477       	101.74428      	100.320755     	93.10319       	101.15495      	101.99129      	90.571815      	101.40556      	96.305046      	87.6787        	95.39684       	94.73115       	91.057625      	94.345024      	89.60601       	87.55706       	93.324104      	89.02706       	87.28634       	92.01045       	89.10151       	82.61975       	92.6663        	88.59805       	87.45618       	89.717636      	85.810585      	87.8914        	89.323975      	87.94394       	83.652534      	89.40524       	84.60246       	86.18115       	94.079796      	82.237946      	83.9246        	92.67414       	82.76982       	91.9689        	93.57115       	83.955734      	92.205124      	97.987175      	88.09162       	93.64888       	102.99336      	90.15903       	87.36956       	94.11907       	96.23387       	96.995         	
94.28665       	91.267075      	94.049446      	97.71172       	91.29133       	93.07462       	96.92339       	88.422745      	93.70074       	99.01305       	83.46805       	94.28043       	95.78666       	85.46617       	94.32479       	97.22485       	82.98601       	93.21117       	91.42827       	86.795395      	95.85192       	86.95287       	86.69417       	98.30311       	90.663864      	86.3506        	105.00123      	91.07682       	85.892296      	101.07177      	93.05378       	97.12841       	103.168945     	94.34297       	97.521675      	103.06215      	93.78554       	99.941         	107.26139      	92.43331       	100.74053      	106.04247      	97.83426       	101.755684     	104.877525     	100.62131      	102.03906      	104.81357      	102.98145      	107.82788      	104.19044      	100.974014     	107.240036     	104.80834      	101.0467       	107.43208      	105.26299      	95.53067       	101.61839      	105.01108      	99.54125       	99.31595       	103.432755     	96.87202       	97.45531       	102.42592      	100.054695     	97.92676       	100.1241       	98.489426      	99.76988       	102.55626      	94.90808       	105.47318      	102.14351      	96.57345       	109.41112      	97.25447       	82.66137       	92.31937       	93.128105      	87.09417       	90.9451        	91.24586       	86.75134       	96.39595       	90.52443       	89.80009       	101.19404      	90.18839       	85.905426      	98.943146      	94.03987       	93.266304      	101.50096      	99.131424      	94.06177       	96.515755      	100.03742      	102.78769      	
81.39511       	98.10057       	79.11462       	87.04566       	85.710236      	89.598564      	92.6856        	82.47885       	84.967445      	90.59462       	83.19776       	86.805336      	89.64738       	85.27431       	84.2946        	85.67464       	85.984856      	87.62451       	83.5804        	83.95464       	88.92017       	81.96376       	84.103165      	92.870125      	84.10373       	84.39273       	92.05324       	88.26624       	87.77454       	92.79667       	91.461716      	94.86437       	91.559074      	92.528404      	99.51013       	96.45565       	87.72769       	97.64465       	101.90085      	90.01631       	95.855576      	102.556526     	95.43778       	93.54646       	102.19284      	100.56319      	97.35417       	96.58599       	98.42778       	104.53578      	100.474174     	93.34881       	108.67152      	103.15422      	88.906364      	100.033394     	102.974396     	92.007286      	95.563675      	97.400955      	92.61623       	91.84713       	96.410904      	93.066536      	92.676285      	94.70334       	88.440186      	93.26634       	95.18658       	86.8601        	95.49179       	93.11717       	81.27501       	93.33473       	99.73109       	80.625404      	90.01083       	97.87594       	81.4755        	90.62341       	92.49555       	85.286         	87.882576      	90.64241       	87.91829       	95.47663       	88.86185       	85.11241       	99.43668       	95.16192       	83.14049       	101.78105      	102.85389      	88.46973       	96.15294       	99.60316       	95.11317       	95.31177       	100.77481      	103.787315     	
85.105835      	91.78358       	89.98925       	98.956955      	91.11333       	89.251595      	96.72518       	87.562004      	93.55372       	97.177246      	83.79326       	94.24443       	92.939926      	84.34726       	93.448074      	95.11115       	82.4096        	91.409836      	88.865486      	84.992714      	95.76846       	86.66129       	84.31921       	94.34699       	85.177666      	88.780685      	97.59103       	87.233635      	86.87781       	95.73288       	91.55378       	93.97843       	99.86797       	88.93195       	94.36073       	99.002655      	89.768326      	98.053055      	99.76674       	91.08035       	98.34677       	100.510574     	94.88696       	100.226685     	101.93968      	93.44219       	95.6698        	98.438385      	98.043686      	102.43697      	95.50562       	96.939575      	104.01757      	96.91631       	94.38609       	103.15986      	96.084076      	87.59764       	94.91188       	97.16141       	91.58171       	92.276665      	89.0325        	92.0013        	90.686966      	90.69593       	93.39373       	91.51393       	87.1244        	88.71988       	95.46624       	88.036835      	86.26534       	91.737305      	87.713455      	85.429985      	89.700966      	90.62779       	84.4206        	85.543144      	91.48029       	90.38632       	85.91483       	86.05347       	88.74308       	88.48384       	88.62805       	88.72655       	93.83278       	89.07304       	90.07525       	89.900826      	93.313194      	100.11222      	95.22534       	93.14446       	95.70466       	96.59215       	96.301544      	96.29182       	
85.86288       	96.39228       	90.43092       	87.22226       	95.40292       	90.74822       	86.43321       	96.435295      	86.551865      	87.75666       	94.28864       	86.92459       	92.10095       	92.92822       	83.98389       	85.52778       	91.23282       	87.32299       	88.95332       	89.160385      	83.06496       	88.93605       	90.77969       	82.64673       	88.89851       	95.50725       	85.86959       	88.39578       	94.04101       	93.26698       	94.55104       	91.96691       	92.80957       	93.3396        	94.95162       	95.87696       	94.22668       	95.79735       	95.60338       	92.83207       	98.17803       	99.42342       	97.16652       	97.82042       	97.336586      	96.81367       	104.03942      	97.88184       	96.10576       	104.11678      	97.612755      	97.05649       	104.24792      	101.856255     	92.84809       	102.68775      	102.42481      	93.54553       	97.10128       	98.61122       	93.48737       	98.82757       	95.14259       	92.02705       	97.23493       	92.573685      	89.11987       	91.68703       	93.04524       	95.41605       	92.62313       	88.674126      	89.187485      	95.70197       	91.54034       	88.319084      	92.06664       	90.88486       	88.4087        	86.6371        	93.42123       	89.12426       	85.46143       	88.55559       	92.0236        	90.15564       	83.90728       	92.32748       	96.267876      	85.08095       	94.94378       	96.70572       	93.92839       	92.52318       	98.66448       	98.59654       	98.21275       	98.24489       	98.25691       	95.76998       	
90.48617       	95.247185      	87.67714       	93.84709       	93.423355      	91.73461       	94.12395       	88.04635       	89.60622       	97.749214      	91.88195       	83.80235       	97.93421       	90.018875      	84.42162       	87.74299       	89.95068       	94.48427       	86.772675      	84.366264      	90.18957       	90.15547       	86.34847       	85.85784       	95.246056      	88.04555       	87.907265      	94.060555      	96.886955      	89.03765       	92.58463       	98.07864       	93.302734      	96.01376       	93.6624        	99.00807       	93.40052       	93.88664       	98.51957       	101.24848      	91.96738       	94.79479       	102.48422      	99.05501       	95.998245      	100.19244      	100.52844      	99.80835       	99.26173       	101.43702      	104.11291      	96.67949       	98.75819       	100.15807      	103.00111      	100.89165      	98.18487       	97.81618       	95.73075       	94.33614       	99.44873       	96.58256       	88.12549       	95.534424      	95.67873       	84.94035       	92.3814        	92.615         	88.48462       	87.38118       	89.53087       	91.2454        	93.151596      	83.959305      	88.40309       	94.93319       	84.19978       	87.771645      	95.28392       	86.31867       	82.76672       	93.21069       	88.53007       	86.63231       	89.007614      	86.02902       	90.10328       	90.958244      	89.60941       	95.25084       	93.55169       	88.354195      	98.99202       	103.856926     	88.68449       	93.90751       	105.16934      	104.290436     	98.808235      	93.432304      	
91.01643       	89.33293       	89.33178       	94.79959       	88.67479       	88.387276      	96.66223       	85.4923        	84.96647       	91.77152       	86.91159       	89.58298       	88.75329       	84.38427       	84.148636      	93.3497        	88.292725      	86.779785      	90.26964       	85.719864      	86.44589       	89.65622       	88.38553       	88.298904      	88.49402       	88.31766       	95.85768       	94.30912       	84.15451       	96.239944      	97.95194       	90.06752       	99.0692        	98.215775      	92.45202       	98.85091       	100.13917      	95.67657       	101.773796     	97.85706       	94.0383        	97.05641       	98.35091       	98.13199       	102.89665      	96.06876       	95.99777       	99.47206       	100.13172      	98.021614      	100.83507      	101.55067      	96.58782       	98.18332       	103.065094     	98.97343       	96.67577       	93.18098       	94.051636      	96.31485       	91.51242       	92.45645       	94.15661       	90.76602       	86.52525       	96.54583       	93.2543        	83.057175      	92.158844      	94.503586      	83.98397       	91.53491       	93.379875      	85.53069       	88.99987       	90.94307       	89.38884       	90.47743       	86.427086      	84.973274      	88.01431       	86.29085       	87.985466      	90.72796       	83.12843       	83.06125       	94.50392       	88.33759       	84.77919       	95.729965      	90.67907       	86.906906      	94.624886      	98.873955      	94.05721       	93.00553       	94.91871       	94.6973        	93.576256      	93.78942       	
84.44735       	97.246544      	86.68828       	86.44555       	95.40186       	88.05107       	86.323395      	90.954544      	87.99136       	94.54725       	85.70206       	80.11649       	95.90484       	89.60943       	78.524734      	90.888985      	93.30774       	77.36485       	86.38713       	85.93658       	88.97126       	91.58886       	79.99342       	86.64026       	93.168594      	80.7017        	88.7366        	94.508705      	82.2524        	87.38266       	95.23302       	89.7738        	90.54051       	95.35112       	89.83833       	93.1102        	93.33644       	93.791374      	95.268265      	95.58084       	87.32251       	96.739296      	101.82052      	89.3144        	96.2524        	102.98457      	90.340485      	97.79487       	102.7421       	96.363884      	93.12564       	102.775444     	99.625244      	97.72035       	95.69437       	96.59052       	97.58314       	94.28825       	89.30104       	95.64762       	99.95112       	83.87151       	90.43788       	91.974724      	91.641304      	92.98784       	90.78515       	87.72445       	88.70122       	93.59741       	88.681915      	86.61467       	89.47327       	87.88851       	86.371544      	84.19227       	88.1584        	87.37631       	80.7955        	88.933136      	91.79975       	83.94941       	83.06373       	90.099045      	87.872055      	85.32931       	91.38012       	87.21339       	92.03071       	88.04143       	88.26497       	98.02091       	95.468346      	88.993576      	95.7115        	96.1607        	94.964554      	95.86084       	98.96436       	98.57185       	
99.48155       	97.1975        	99.75993       	97.52592       	96.74808       	97.47393       	96.117744      	93.97768       	93.57434       	98.90921       	93.26387       	90.57609       	96.5397        	93.44587       	88.680244      	91.48648       	96.37203       	88.836334      	87.66025       	91.88484       	94.92347       	88.72795       	85.26718       	93.908806      	89.400475      	87.24257       	96.453896      	90.79423       	90.59305       	91.69657       	97.08085       	98.06037       	96.22506       	92.15388       	98.172485      	99.16515       	89.73528       	102.02048      	101.16071      	89.08847       	98.17793       	104.95766      	94.58614       	93.21082       	104.85157      	98.89945       	98.493614      	105.350746     	94.335045      	103.214005     	104.6617       	95.53594       	104.41485      	105.41662      	92.18741       	102.257286     	99.63244       	91.972984      	101.65302      	97.79126       	91.92471       	97.253555      	93.56047       	95.85863       	95.76168       	91.70299       	93.98858       	94.74515       	92.57628       	94.83316       	98.06567       	89.48633       	91.423065      	96.851715      	89.71647       	93.77287       	92.013565      	88.42342       	94.22502       	93.66912       	87.782845      	94.22368       	92.76273       	86.64554       	97.4554        	97.03802       	86.68871       	101.12993      	101.043076     	92.86248       	102.45893      	103.93804      	98.60702       	103.32336      	103.42032      	104.38204      	106.68751      	106.40429      	105.72953      	103.35782      	
94.347084      	91.11833       	94.87685       	100.017624     	93.85942       	93.10594       	102.45694      	96.4026        	93.02865       	102.297485     	91.63387       	94.62401       	104.54944      	90.66374       	96.692474      	103.82165      	91.640816      	97.74321       	107.56923      	88.97407       	95.5544        	105.78868      	92.912125      	100.82533      	102.99987      	94.986404      	109.31796      	106.019684     	93.661224      	114.26246      	110.63701      	92.830414      	111.27349      	107.97998      	102.93189      	112.860405     	110.547066     	103.5999       	111.03458      	109.06087      	108.15142      	114.60407      	106.37572      	108.63516      	113.912605     	107.718575     	109.57175      	116.45003      	108.80226      	106.64449      	116.21998      	113.748955     	109.041504     	112.63595      	110.802086     	109.516846     	112.479164     	106.15777      	109.68106      	106.43892      	101.70418      	108.809395     	111.261444     	98.854904      	103.3177       	110.975464     	97.351036      	103.064705     	107.95658      	96.97814       	101.09044      	102.201294     	100.230804     	103.074936     	99.375084      	92.81013       	102.49385      	99.8291        	89.519424      	99.728874      	99.777016      	89.376724      	93.57777       	94.8368        	92.23891       	99.88307       	91.532036      	90.85526       	101.919174     	93.83052       	92.608185      	101.20109      	99.59933       	93.10053       	98.797745      	99.12059       	95.968925      	97.95839       	101.821014     	99.85596       	
93.814285      	90.1337        	91.691284      	86.31127       	91.62276       	90.792         	82.30814       	93.61938       	93.26949       	77.000275      	88.54902       	88.47876       	79.7878        	89.13029       	86.081696      	80.23474       	89.37721       	81.140434      	85.044205      	89.61979       	81.22108       	82.3708        	89.390884      	81.47327       	83.774574      	92.84192       	83.73507       	87.023605      	90.70775       	88.74898       	92.301506      	93.5098        	89.446815      	93.127495      	95.57809       	91.49511       	96.51728       	97.04915       	91.42381       	93.28987       	93.73138       	97.12972       	92.771286      	95.50874       	95.569374      	92.540474      	97.055595      	99.168495      	94.32539       	96.946846      	97.000984      	94.89961       	98.38798       	99.8167        	92.44766       	98.34825       	94.36081       	89.37284       	97.672905      	93.94991       	86.59132       	92.81065       	89.25005       	89.8038        	92.4449        	86.06235       	87.75011       	90.82883       	84.399605      	89.54316       	91.42874       	83.50064       	85.747765      	85.156624      	85.71355       	89.7884        	83.58084       	83.73111       	88.50301       	80.776245      	83.7371        	90.208824      	80.930084      	81.1399        	88.45213       	81.781906      	83.678375      	91.009995      	84.382965      	89.40662       	89.41044       	85.90777       	94.35039       	93.72204       	84.71322       	89.544785      	93.40038       	92.90785       	90.49975       	91.165695      	
90.241905      	93.32256       	89.90077       	96.357506      	90.41008       	93.1328        	96.78307       	87.973595      	93.376625      	93.59722       	86.51871       	96.22731       	93.75151       	85.24406       	91.202385      	95.259155      	88.22542       	92.38729       	94.45238       	87.455124      	91.48093       	92.071335      	92.13978       	92.352486      	90.169         	90.07856       	97.78072       	95.32307       	89.076935      	99.161606      	96.758125      	89.4605        	95.13138       	96.411674      	96.81783       	101.10469      	95.7387        	96.47904       	97.94849       	98.00953       	100.419975     	99.085014      	100.64145      	99.12364       	98.06822       	101.67233      	103.381874     	100.65699      	100.76979      	101.69013      	100.18666      	104.58868      	104.53619      	100.79077      	102.42282      	103.38646      	99.67624       	98.28714       	97.7602        	99.77817       	95.20112       	94.84553       	97.720856      	97.42066       	90.65102       	92.37444       	96.29716       	90.80603       	91.92431       	92.54864       	90.85235       	89.464066      	92.14791       	89.93465       	92.30423       	88.569305      	85.491455      	87.91963       	86.93147       	87.95822       	89.68376       	87.80807       	84.99327       	89.88957       	87.92903       	85.35988       	89.803375      	90.30026       	87.74955       	87.83534       	94.44577       	91.10399       	92.739494      	95.62135       	91.929146      	95.45928       	101.38705      	99.96353       	93.47426       	94.167496      	
87.11433       	101.6927       	90.23953       	88.25583       	99.271645      	89.05848       	90.30022       	95.24711       	88.838         	93.76757       	94.119194      	85.224785      	91.48845       	96.19445       	83.80408       	89.21908       	98.804115      	82.5346        	85.34488       	90.83618       	86.691124      	90.97094       	90.413345      	82.069305      	92.910965      	91.70304       	86.16381       	95.50685       	92.27152       	86.96583       	95.579384      	97.61537       	90.80051       	97.805664      	95.94339       	92.920975      	96.27567       	97.6775        	97.61961       	98.8238        	94.87158       	95.6916        	97.77255       	96.11468       	97.53512       	102.76151      	95.86361       	96.782974      	100.93253      	99.82761       	98.51774       	100.80657      	98.42683       	96.70825       	97.47538       	103.48246      	96.75313       	91.24466       	96.09176       	96.76091       	92.46159       	89.62344       	96.90625       	91.22393       	85.28834       	92.40429       	96.02382       	88.76281       	85.848114      	93.63009       	89.01456       	88.216156      	87.53456       	88.21471       	89.37821       	82.94598       	87.44493       	92.476845      	85.51016       	80.56789       	89.855606      	88.07177       	83.43198       	87.965866      	88.25644       	87.99154       	83.87167       	83.10076       	88.99057       	92.12076       	85.3163        	88.08815       	95.225266      	88.45682       	90.4843        	98.90763       	93.70056       	86.3159        	86.047066      	89.458015      	
94.11092       	92.28105       	96.97661       	89.05636       	89.35877       	97.538925      	90.723564      	82.84798       	92.520355      	93.183105      	90.16415       	90.49479       	88.88875       	88.982185      	93.332085      	90.10442       	87.84299       	93.562004      	88.84889       	86.50875       	95.3199        	88.546616      	89.74031       	89.610405      	90.96648       	93.79098       	97.47151       	87.027176      	96.04367       	97.71293       	89.91502       	102.64155      	97.65709       	92.18504       	98.95112       	99.98603       	94.471176      	101.786095     	100.678345     	93.77413       	100.67965      	102.23604      	97.1314        	104.48659      	99.21844       	97.93502       	108.22755      	102.696465     	97.97397       	110.62344      	101.44933      	97.33411       	101.18552      	102.29986      	104.480576     	102.09285      	98.332085      	96.81047       	97.83865       	98.58011       	97.59333       	96.00048       	93.778         	93.44341       	94.08776       	93.190346      	94.42616       	90.448494      	92.60765       	90.5728        	92.61732       	90.921646      	90.65308       	91.32101       	87.27357       	90.49984       	95.07315       	87.79977       	88.026855      	95.39017       	85.96955       	88.56642       	93.478355      	87.3933        	90.98019       	90.02431       	87.94502       	97.236084      	92.55743       	84.57557       	100.70113      	94.61882       	89.26933       	102.85245      	99.794754      	91.233025      	95.68159       	100.90189      	102.010345     	100.84067      	
88.49695       	98.08036       	90.383026      	92.11645       	95.327965      	92.619255      	90.2181        	90.73636       	92.97018       	92.762054      	88.30373       	86.86665       	93.12819       	90.362564      	86.509514      	92.631134      	90.865         	86.11434       	86.55147       	92.18038       	90.10261       	86.841995      	87.517075      	90.85411       	90.63243       	89.90157       	93.19156       	92.97787       	90.85127       	92.012085      	100.33943      	92.41888       	91.128975      	98.67473       	94.63103       	98.82598       	95.08592       	98.14502       	98.678276      	102.01046      	95.78354       	99.78825       	103.110725     	92.7771        	96.80559       	98.49771       	100.15075      	100.65677      	99.83919       	99.26355       	100.9763       	100.71903      	98.26359       	101.4326       	98.820625      	99.15986       	97.20931       	92.42848       	99.37838       	94.34875       	93.0749        	95.75184       	90.111855      	92.95555       	95.57408       	89.8899        	90.57447       	95.75502       	87.194         	89.248505      	96.69059       	84.34676       	88.08109       	91.98854       	85.768196      	90.86752       	91.06461       	83.5774        	88.75883       	88.63843       	85.76993       	90.65394       	89.171646      	81.31611       	91.430046      	91.66366       	82.233635      	92.978485      	95.238335      	83.949066      	91.57335       	91.678276      	94.3958        	102.315605     	91.5219        	88.8879        	100.348076     	104.51757      	102.99874      	97.04862       	
92.46174       	90.5493        	94.510735      	87.996376      	83.011604      	88.10749       	91.18243       	86.65618       	88.87253       	89.634964      	82.0862        	85.15534       	91.882965      	83.73262       	85.90317       	88.412735      	83.55594       	86.40848       	85.61437       	84.66178       	84.91297       	84.93808       	82.24509       	90.72173       	88.1253        	81.461914      	93.03791       	89.12109       	84.888725      	93.39403       	92.32173       	86.4191        	96.614365      	93.4108        	89.57909       	99.63346       	91.065765      	89.74179       	95.61173       	93.51252       	94.96773       	100.51778      	92.47213       	94.75301       	98.55572       	95.62347       	93.37491       	102.32282      	95.54635       	91.51094       	99.832466      	100.62279      	93.55038       	98.471855      	98.85482       	95.367096      	95.99393       	91.83513       	95.87358       	94.245026      	91.211426      	93.16813       	98.72745       	87.14778       	88.34501       	97.86764       	87.74275       	89.219246      	93.64639       	90.149155      	87.00781       	92.68351       	91.35344       	90.56713       	92.23485       	83.7911        	93.45039       	97.04322       	82.8784        	92.2659        	96.85261       	84.97156       	84.742836      	91.61654       	89.28951       	91.46955       	89.3607        	85.489815      	95.265656      	90.87671       	87.18912       	96.22559       	95.337105      	91.18493       	95.07096       	97.74354       	95.98812       	95.33044       	97.25722       	99.51031       	
99.65117       	89.32556       	95.60107       	93.95264       	92.54115       	95.98085       	92.51656       	90.6076        	94.13704       	93.55847       	90.64594       	97.46411       	91.265816      	87.39668       	96.784546      	89.28856       	89.272095      	93.02489       	90.48499       	84.999214      	94.12887       	89.23552       	85.719475      	92.51738       	86.80822       	87.06266       	100.364204     	85.88384       	86.885735      	101.00447      	88.30689       	91.71493       	102.31991      	90.14241       	89.702774      	98.7869        	94.39473       	94.65555       	99.82121       	89.243515      	99.481705      	102.844536     	88.1118        	99.498604      	105.74658      	88.30687       	94.375656      	99.671295      	94.80127       	101.01442      	100.37233      	93.019775      	100.21451      	100.10067      	96.42176       	100.826614     	98.531334      	88.20346       	98.60997       	97.84067       	88.623856      	100.91179      	92.76977       	88.91915       	94.5581        	95.71827       	88.51728       	96.34703       	90.06209       	86.13297       	97.53303       	87.96595       	86.50801       	93.84054       	87.676186      	81.85344       	94.902885      	87.938805      	82.16321       	92.898674      	85.72824       	81.94743       	95.87727       	82.266304      	83.38681       	96.56112       	81.44129       	85.55075       	102.98482      	81.5872        	83.4027        	100.73073      	88.631424      	90.9466        	99.412636      	90.68705       	88.51112       	95.318886      	102.41823      	101.97478      	
92.497925      	95.69002       	90.72643       	96.21293       	91.34363       	90.13835       	98.75672       	92.49185       	86.711075      	96.51109       	93.520676      	85.26016       	94.43562       	92.33204       	87.426056      	91.3576        	89.68616       	91.40644       	94.38836       	84.12645       	90.054634      	93.10164       	84.70276       	90.160194      	95.0207        	86.777664      	90.21476       	94.088005      	92.01444       	93.70763       	96.44084       	93.37712       	94.657265      	97.0321        	95.32972       	100.80078      	97.9547        	91.77197       	100.99238      	101.097725     	94.871185      	99.64758       	102.86722      	93.96485       	97.55883       	97.24897       	98.415146      	104.46867      	97.75278       	96.45297       	103.9299       	99.34252       	95.96887       	106.36958      	98.253265      	95.46883       	102.70889      	93.95153       	94.04316       	102.936035     	89.86598       	93.81348       	99.85027       	88.509         	96.382256      	99.272         	87.19105       	95.39831       	98.50563       	85.86201       	97.74903       	97.775444      	85.34761       	96.36205       	95.85648       	91.02664       	97.32991       	93.47132       	88.79395       	98.13095       	92.974174      	87.81483       	100.67116      	90.98376       	84.694374      	96.46196       	90.42398       	91.46652       	99.34652       	92.89591       	93.32889       	99.122284      	94.285         	98.14295       	104.74893      	97.19006       	93.09394       	98.66468       	103.8992       	105.11071      	
93.18466       	92.86573       	90.75654       	89.26258       	95.47429       	94.34693       	85.05827       	90.573044      	90.887764      	89.04341       	89.689575      	90.005264      	91.22762       	90.415436      	83.904785      	92.181         	93.50667       	84.62737       	87.94954       	94.15637       	84.191         	88.28109       	95.238106      	85.57832       	90.74606       	92.37331       	89.043304      	93.52856       	91.27807       	89.16673       	96.419235      	93.227646      	88.265755      	102.53179      	96.96099       	88.041275      	100.97648      	97.93403       	94.448555      	98.94032       	97.6281        	94.563835      	101.99195      	95.531815      	96.01639       	106.41609      	92.558464      	94.576485      	102.05156      	94.385544      	98.913574      	102.596695     	96.20492       	97.94409       	101.44438      	94.85197       	101.486725     	97.0794        	88.54052       	99.10017       	96.97723       	90.40644       	97.31932       	95.301636      	87.04228       	98.347115      	92.73192       	89.41504       	99.07069       	93.76888       	86.46113       	97.34596       	91.02157       	89.940994      	96.15225       	87.79069       	92.26839       	94.48836       	87.64723       	92.69535       	97.07293       	85.26896       	88.00902       	96.937416      	86.83887       	87.916374      	96.06867       	90.022385      	90.15259       	93.67341       	92.2589        	93.82431       	96.45909       	91.675674      	98.26857       	102.66556      	98.65309       	95.76248       	94.09814       	97.71227       	
94.751305      	87.702034      	89.053345      	96.11874       	90.049774      	93.337         	94.30755       	85.728775      	92.715706      	95.97123       	84.45721       	95.371635      	97.3777        	82.75263       	90.26295       	91.54477       	87.55692       	93.230415      	91.15617       	84.8693        	93.32978       	91.65495       	85.06518       	96.45961       	89.50898       	87.52531       	97.76578       	89.37634       	90.547195      	98.64776       	90.92252       	90.28235       	98.848305      	93.910164      	94.783394      	97.22132       	93.8129        	94.67503       	95.73929       	96.20593       	95.88879       	99.38152       	93.6053        	94.710686      	101.198074     	96.01892       	94.91743       	101.76986      	96.86243       	91.593925      	96.11933       	100.73063      	96.65146       	94.99275       	94.788         	96.17087       	96.84936       	90.43514       	89.84725       	98.43128       	95.586586      	86.490685      	93.82743       	96.64815       	89.381035      	91.78614       	93.72713       	86.95104       	90.593506      	93.794975      	88.5923        	89.3746        	91.10053       	89.380646      	91.14315       	91.770294      	86.1903        	90.87109       	88.863495      	87.76661       	93.91695       	88.49475       	83.60637       	92.52722       	91.28146       	88.36935       	90.85329       	90.63463       	91.858345      	92.77192       	88.17188       	89.97027       	94.14998       	89.28575       	88.85328       	97.20804       	98.85934       	96.81674       	90.95911       	92.902596      	
90.90518       	102.45604      	94.24997       	94.78907       	100.17813      	94.29667       	93.79634       	94.625854      	98.40986       	100.29594      	93.76982       	93.89294       	98.94695       	94.595345      	93.76458       	98.40303       	95.439835      	92.89884       	93.59291       	95.322914      	98.18224       	95.849106      	91.681465      	98.4888        	91.8521        	92.68579       	104.152725     	95.47076       	89.36354       	100.16255      	97.77949       	93.36852       	99.64647       	97.96602       	96.22354       	98.19304       	98.432625      	99.266685      	101.62641      	95.255295      	97.21608       	105.30676      	97.12739       	94.70843       	105.429695     	99.651665      	93.84334       	100.66691      	96.10291       	100.64992      	103.034584     	92.5351        	98.7993        	100.23353      	94.95951       	100.39352      	100.55651      	89.78692       	102.26845      	97.873695      	93.06412       	105.08481      	95.90287       	92.60281       	101.326996     	94.05527       	97.972694      	98.470474      	94.10705       	97.04727       	97.38177       	91.17149       	98.77241       	99.8839        	86.659775      	94.3265        	100.81848      	87.449814      	95.9609        	96.926605      	88.23622       	93.39263       	96.30561       	90.433         	95.73434       	92.71247       	86.38866       	95.906525      	97.415855      	85.079025      	99.55075       	99.709305      	88.038         	95.473076      	96.32148       	91.86572       	92.6124        	97.80848       	102.879425     	86.41113       	
91.437775      	93.13353       	89.85097       	84.44691       	95.521034      	91.28991       	81.93925       	97.94641       	93.29756       	81.23229       	91.43594       	90.61206       	88.21814       	91.96732       	90.93758       	89.12143       	89.54052       	90.86494       	89.67978       	93.68609       	86.13204       	87.30665       	94.63048       	88.015015      	87.78889       	93.26881       	91.721436      	86.14063       	93.13126       	93.44567       	90.873795      	92.18649       	91.36583       	91.70191       	96.00082       	89.35351       	93.5493        	97.895996      	88.69174       	94.42212       	102.81534      	94.35265       	89.01513       	101.43896      	96.04118       	92.66486       	102.37855      	91.37495       	99.075165      	101.60196      	92.51196       	100.16296      	102.447876     	88.84328       	96.318985      	97.40699       	92.50858       	98.64454       	98.2124        	89.83025       	97.338905      	95.6765        	90.31898       	95.61683       	94.79851       	91.051315      	97.67713       	90.08455       	91.67343       	102.98125      	90.124504      	88.01415       	101.13315      	88.09565       	89.877235      	101.727585     	87.08731       	91.09123       	98.56914       	85.73772       	93.89791       	99.08024       	83.55522       	91.48444       	97.453445      	82.56593       	94.148735      	100.698        	81.7747        	95.88585       	99.620155      	83.70938       	99.04549       	99.21452       	86.30004       	95.792984      	101.04146      	92.98665       	88.3186        	88.37097       	
88.47493       	95.993         	91.73979       	89.58061       	98.186386      	91.00334       	88.67728       	95.95141       	92.95977       	90.070305      	93.89312       	89.701385      	91.7878        	97.242325      	86.1732        	94.31349       	93.97742       	87.06696       	92.03848       	98.33172       	84.39985       	90.20402       	93.73532       	88.16536       	91.65824       	92.6316        	86.57047       	94.680145      	93.832405      	85.555466      	98.85999       	95.36495       	85.12553       	93.80346       	94.5072        	92.045456      	98.678185      	94.42967       	89.99698       	98.342         	94.69252       	92.824165      	96.41656       	95.18767       	92.813126      	96.305435      	94.08019       	97.17402       	99.8871        	91.73896       	95.62509       	98.451065      	92.75715       	97.017105      	99.12794       	92.451546      	96.46622       	93.64851       	96.164505      	98.922295      	92.01384       	94.262085      	95.35068       	89.822876      	94.97568       	97.523834      	89.49712       	93.740234      	95.88745       	90.23336       	95.23719       	92.72781       	91.60205       	91.797005      	94.174614      	90.6293        	97.5926        	89.9123        	88.50408       	95.28533       	91.83305       	88.35841       	91.164116      	94.64526       	84.52913       	92.77632       	93.60379       	87.72872       	92.09598       	89.43497       	87.60921       	96.49731       	91.46261       	84.72421       	100.34201      	97.22505       	85.826294      	85.62499       	89.984795      	93.39298       	
102.87379      	88.353714      	100.16723      	92.11632       	92.29686       	98.055016      	88.27145       	95.987885      	98.94286       	85.22575       	93.617386      	102.00546      	81.89604       	89.90687       	95.88769       	84.996735      	95.07342       	96.81009       	87.188774      	93.99296       	93.585396      	88.81513       	93.73534       	91.39604       	87.37553       	93.58499       	91.064644      	89.51574       	97.456985      	90.31729       	87.88223       	98.68835       	92.86659       	88.09099       	96.76026       	92.93893       	91.13086       	95.301704      	96.40318       	94.28865       	96.83077       	92.43151       	92.64094       	99.97551       	95.414665      	92.21739       	101.26998      	97.21197       	89.180786      	99.278854      	94.46583       	96.34225       	100.83333      	92.34315       	92.04002       	98.57852       	95.94498       	91.403885      	98.62878       	93.09474       	94.4119        	92.925575      	91.83011       	97.377106      	92.187614      	87.297325      	93.50814       	91.7107        	89.56871       	91.77398       	93.48951       	89.87526       	90.81242       	88.921455      	93.53247       	94.51934       	86.82779       	91.66999       	93.76498       	85.71309       	94.4502        	96.1989        	87.03619       	91.03775       	94.333855      	88.776566      	92.33548       	94.84244       	88.95418       	94.02432       	90.43415       	91.41673       	97.86791       	92.9469        	88.50313       	93.68375       	96.519615      	95.58379       	93.702965      	92.947495      	
98.04405       	92.69302       	99.170906      	93.58797       	92.83732       	98.02368       	92.496         	96.22521       	96.54634       	90.51922       	97.66435       	93.76998       	88.18579       	98.03077       	97.711296      	84.8967        	94.84042       	99.10128       	88.40161       	95.69394       	95.99411       	90.821785      	95.818535      	92.93022       	93.30489       	98.86498       	89.578995      	90.5809        	98.42099       	93.91247       	89.062454      	97.60281       	96.484566      	88.89265       	94.98188       	90.66127       	93.876205      	98.9498        	91.302734      	90.193726      	97.87648       	91.67057       	93.44728       	98.216194      	89.44352       	93.01258       	97.23861       	87.142746      	95.67229       	99.09126       	87.86842       	94.6205        	99.52221       	91.14682       	96.44616       	98.78175       	88.78909       	96.42498       	96.08139       	91.983925      	97.89513       	94.02452       	90.59448       	98.69593       	94.19706       	88.756874      	99.1724        	95.63348       	86.38656       	95.54131       	92.98314       	91.57309       	97.76476       	91.09176       	93.63132       	94.35213       	89.50646       	96.21058       	96.158356      	89.14532       	94.2599        	93.09989       	91.742096      	96.46197       	95.323364      	89.107216      	97.64457       	93.28089       	90.343735      	100.2194       	90.47136       	91.620804      	97.48926       	94.42528       	92.940544      	99.14362       	96.911865      	91.567215      	89.74327       	89.68209       	
98.59376       	90.64709       	91.34127       	93.92823       	96.63419       	91.07421       	90.71657       	96.57833       	89.25367       	93.76374       	96.13123       	91.51469       	90.83902       	95.65625       	92.37997       	90.74301       	97.789536      	89.84407       	92.64261       	91.4673        	89.77779       	96.425835      	90.98271       	87.892296      	94.00137       	93.82115       	90.942024      	93.31131       	95.61524       	90.26713       	93.59158       	95.69649       	96.16832       	95.36499       	94.944916      	92.470795      	97.17299       	98.56371       	90.100136      	97.825935      	100.44876      	89.748604      	93.27922       	97.428795      	94.976456      	98.32598       	94.50937       	91.55054       	96.22006       	98.16464       	93.35219       	97.44554       	98.2172        	93.03374       	97.0681        	95.138466      	95.83046       	96.88567       	94.50075       	93.95093       	95.651825      	93.60843       	94.56768       	99.10132       	91.381714      	92.45954       	97.6877        	94.02006       	93.31562       	93.46315       	96.10091       	92.311295      	92.651855      	95.55911       	95.94348       	93.3486        	90.95942       	93.494316      	97.82511       	93.183716      	89.82277       	99.57093       	94.19164       	86.13441       	93.12939       	95.42765       	93.64425       	92.7666        	92.57502       	91.66399       	92.83581       	94.39745       	91.22152       	97.192764      	91.992256      	90.47775       	91.97061       	95.50623       	97.54801       	97.164276      	
94.69988       	98.26315       	100.00011      	92.8938        	94.40077       	99.420525      	95.53472       	90.596054      	92.688736      	93.64564       	98.93074       	92.95336       	89.45322       	96.78781       	91.6399        	92.82162       	97.32491       	92.83203       	91.64543       	98.73141       	92.62273       	91.87728       	101.92496      	89.982956      	93.47433       	98.796715      	93.7033        	96.0522        	98.586426      	90.163086      	95.03633       	99.80346       	92.488686      	94.75945       	98.539215      	92.984795      	95.33072       	99.72733       	94.297554      	96.11865       	101.74133      	90.12797       	97.577896      	104.81189      	88.817024      	95.975784      	103.38518      	90.8675        	91.21742       	100.12838      	95.7463        	100.0918       	97.37116       	92.63718       	98.18334       	101.39461      	93.405815      	96.43018       	104.83383      	88.49428       	96.97981       	98.416176      	93.14179       	101.02259      	97.160995      	92.297554      	96.96219       	93.57016       	94.816925      	98.204544      	92.32512       	91.47209       	99.118164      	89.366585      	90.8604        	99.917114      	90.26202       	88.10046       	96.647446      	94.20479       	91.38107       	95.315384      	93.13533       	93.538734      	91.57716       	91.60596       	98.36043       	93.929886      	89.17382       	94.901276      	97.98036       	91.82124       	92.70334       	97.80142       	95.64279       	90.12149       	91.08792       	91.01818       	92.00928       	92.6468        	
97.085075      	91.2061        	96.72091       	100.095245     	94.15301       	95.864265      	96.63709       	94.7071        	98.48856       	94.403435      	96.06063       	98.139275      	92.53962       	93.38834       	102.52377      	94.042145      	90.08635       	100.28313      	93.804214      	92.46477       	98.042366      	93.50473       	94.19019       	95.289604      	93.28068       	97.57348       	97.93673       	90.77506       	93.24903       	102.3103       	93.14117       	91.06534       	102.53403      	93.836945      	92.153885      	94.322395      	92.67293       	98.805695      	98.63595       	89.46158       	97.67212       	96.510056      	91.022125      	100.56444      	96.685265      	89.83385       	98.671425      	97.88172       	90.72815       	99.53598       	98.400566      	89.227776      	101.124596     	95.48817       	94.32005       	101.83855      	93.24297       	91.39078       	104.10739      	94.30767       	89.71774       	103.66121      	91.211716      	92.70406       	100.17473      	93.36873       	94.74116       	98.97461       	90.31789       	90.32166       	96.10289       	90.860146      	93.84916       	96.181274      	86.9067        	92.11989       	96.19257       	86.603516      	90.82771       	96.05311       	86.96536       	90.74196       	93.839165      	86.6613        	93.89596       	92.078476      	84.48015       	94.560585      	92.30185       	87.56944       	96.9399        	91.25903       	87.31114       	97.443565      	93.62645       	88.32292       	94.701324      	100.41891      	97.471725      	96.115234      	
91.37259       	92.54968       	87.14119       	96.377045      	92.977104      	90.23953       	95.47523       	93.34704       	88.91928       	94.71738       	91.9608        	88.99385       	96.19311       	92.14506       	87.39653       	94.190704      	95.716324      	87.59859       	93.43651       	96.6145        	86.008545      	89.319786      	91.528076      	94.44389       	92.06318       	88.997574      	89.24975       	92.350426      	92.7889        	84.73583       	92.61083       	91.6348        	87.69614       	87.9936        	94.253334      	92.04483       	85.548416      	90.02075       	90.24403       	86.824295      	91.55264       	88.94665       	91.4712        	89.5993        	85.520836      	92.45841       	96.29066       	86.683975      	87.00685       	96.36573       	85.82394       	88.04159       	96.493164      	85.2466        	88.37935       	91.4707        	87.09473       	92.665565      	91.45013       	83.59781       	93.61612       	89.03201       	82.626015      	95.720245      	88.67025       	83.29479       	92.7572        	91.13773       	83.56892       	91.90312       	90.29024       	85.692055      	90.709145      	90.19992       	90.10533       	91.87758       	86.364174      	87.39115       	94.91422       	89.54045       	83.726006      	96.213905      	90.92699       	80.90455       	91.14345       	88.85148       	90.491425      	93.31994       	86.388275      	88.11332       	94.98547       	89.47917       	87.09762       	96.327225      	87.674126      	86.04359       	91.402824      	93.23772       	92.685295      	89.4501        	
96.90251       	91.16597       	96.34197       	90.64399       	91.128876      	96.130295      	94.91145       	88.80205       	95.79013       	89.07723       	94.48022       	98.19409       	85.224236      	94.53076       	96.97465       	84.817764      	95.43581       	97.726364      	83.47547       	92.958786      	98.88148       	85.40901       	96.37017       	99.80124       	85.01505       	96.33449       	95.59041       	89.11754       	98.186676      	93.97566       	86.23556       	102.55378      	94.80589       	85.0317        	102.99077      	96.12193       	80.70089       	99.27978       	89.02471       	91.08597       	101.17122      	90.089966      	91.248505      	99.61734       	89.933846      	93.73682       	101.89637      	87.24374       	96.35192       	98.79207       	89.84991       	99.478226      	99.43938       	88.32472       	97.305855      	99.04806       	90.2639        	100.05396      	97.19019       	90.14261       	97.39404       	96.712         	91.98824       	97.33953       	94.42081       	89.14861       	97.75216       	95.93637       	87.81961       	101.41976      	94.19548       	88.00631       	96.732544      	90.273384      	91.89605       	101.99212      	88.26861       	89.74155       	100.154175     	91.69937       	89.74894       	98.9898        	88.381905      	92.138466      	95.64892       	86.568344      	98.540146      	96.4397        	81.90831       	95.68934       	98.5805        	83.949585      	97.08873       	102.42364      	84.26403       	91.67814       	99.76404       	94.40689       	89.31798       	88.42953       	
92.8055        	97.129684      	90.303635      	93.88905       	93.51374       	91.54509       	95.67843       	91.96587       	93.7036        	96.44964       	88.7671        	93.91737       	99.60851       	88.46915       	91.156006      	96.286865      	86.535126      	94.06145       	97.152664      	86.99419       	94.92726       	94.92281       	87.844894      	95.84563       	96.96943       	84.8217        	97.76732       	95.33244       	87.5159        	99.94955       	94.75196       	86.45157       	98.000114      	94.20109       	89.648         	98.54213       	91.992714      	88.20421       	100.06637      	91.03903       	88.66363       	102.19445      	89.77367       	86.475395      	96.66398       	90.944855      	90.792595      	98.1106        	88.02485       	91.65883       	95.97226       	88.791336      	92.91833       	99.608116      	87.440346      	91.47446       	98.33035       	89.17996       	91.37821       	97.250984      	90.07181       	90.784676      	92.816635      	90.551834      	91.990486      	93.694305      	87.7013        	90.86732       	95.95665       	85.47429       	91.266396      	96.53691       	85.95775       	87.81905       	90.99336       	90.03975       	93.27816       	91.48134       	86.91435       	91.43352       	91.63144       	85.986694      	91.2289        	88.75648       	88.121025      	89.923134      	87.311165      	89.219696      	94.05371       	86.53913       	85.83784       	93.43078       	88.95277       	87.3367        	91.252655      	90.41141       	88.37709       	89.5404        	89.85011       	89.40691       	
89.965485      	97.283356      	93.96326       	98.2539        	98.53322       	93.68514       	94.7462        	99.40223       	96.45983       	96.24486       	95.78969       	97.33952       	93.554214      	93.76488       	99.63231       	97.139595      	96.59816       	98.04719       	97.968124      	96.30795       	98.00679       	100.458336     	98.24538       	98.02751       	93.00012       	101.07117      	102.85615      	90.95859       	99.19348       	104.958305     	92.01561       	94.9027        	105.20252      	94.35391       	90.94998       	102.132614     	102.18167      	96.48431       	95.65988       	97.62302       	101.08964      	99.60387       	94.48137       	100.36182      	105.503815     	89.65164       	94.811066      	103.37393      	97.89184       	95.8466        	99.11267       	96.11122       	93.30706       	100.33623      	99.29884       	96.10815       	97.23333       	97.9016        	98.61402       	96.990845      	96.3599        	99.05074       	96.99712       	91.561226      	101.922104     	99.8691        	90.311264      	96.47153       	99.54798       	94.764336      	95.430954      	99.57714       	94.825516      	99.30238       	95.94426       	95.641556      	101.26773      	93.22264       	91.84354       	98.80917       	95.75033       	94.10742       	99.04374       	97.646805      	95.72055       	94.34621       	99.47478       	97.792656      	94.580605      	97.18944       	96.86565       	94.10499       	100.24369      	97.729576      	95.41076       	98.44295       	98.34565       	96.49883       	95.75506       	96.240166      	
90.54633       	99.580696      	92.47774       	92.659386      	95.16991       	93.936005      	96.54211       	95.439735      	91.345955      	93.86401       	99.42331       	95.22607       	88.823456      	100.41926      	93.33866       	89.24297       	92.59144       	94.78942       	97.249664      	91.5031        	90.17284       	94.66409       	96.1124        	92.36162       	91.55932       	100.507454     	92.438286      	92.70932       	93.743904      	96.84901       	99.55696       	90.48024       	95.5861        	98.77571       	88.76069       	96.96757       	101.22937      	90.741646      	94.03934       	103.71981      	93.11304       	93.4025        	101.203255     	91.819565      	94.688126      	96.82671       	92.99727       	99.495476      	96.97926       	88.679596      	100.740814     	101.73864      	89.278305      	99.46823       	100.403404     	91.82994       	95.006424      	96.29772       	94.565445      	101.57889      	92.60409       	90.668365      	101.759186     	95.43366       	89.76709       	101.04469      	94.66415       	92.14992       	98.91226       	95.11563       	97.48012       	98.76006       	91.909424      	94.60152       	97.04981       	92.10558       	95.79965       	101.575516     	90.14059       	96.28071       	101.29671      	89.11979       	97.52229       	98.703865      	93.4475        	94.10733       	97.417534      	94.52182       	99.05122       	94.5862        	91.76924       	98.351616      	97.87314       	91.65358       	95.92335       	99.5411        	96.178375      	93.312386      	93.29411       	96.19588       	
91.21297       	94.36095       	89.71646       	93.963936      	96.18396       	90.73044       	90.24309       	96.38351       	92.75587       	91.94035       	93.55313       	94.61095       	91.7535        	87.92486       	96.45733       	96.80375       	87.15477       	90.39748       	97.9399        	91.00328       	86.82185       	97.44567       	93.20265       	86.632065      	94.63361       	97.26652       	91.49718       	90.72936       	90.05138       	95.05058       	96.37039       	85.1659        	91.905754      	100.758705     	84.05705       	84.31802       	95.6479        	93.632805      	88.60074       	92.24747       	92.28986       	87.56524       	94.31962       	93.70594       	91.11153       	93.57758       	90.33389       	92.71195       	96.87065       	88.83662       	91.62129       	95.65104       	88.72053       	91.071465      	100.16284      	89.65382       	89.47862       	98.87204       	90.33373       	96.359024      	93.88126       	89.94259       	95.758514      	97.373795      	87.252556      	99.451675      	100.27482      	82.608086      	93.09709       	97.68541       	90.0959        	94.29573       	96.94803       	95.21459       	93.55664       	93.53252       	95.98699       	100.95057      	92.04495       	88.5479        	100.58887      	95.61928       	87.745514      	99.46729       	95.988785      	91.18597       	93.902336      	97.42155       	96.702286      	94.184135      	92.090126      	97.573074      	94.54452       	92.25932       	96.74915       	97.73404       	95.30163       	93.94139       	91.94861       	93.0351        	
89.36994       	101.30702      	92.818954      	90.19933       	94.78441       	94.482956      	95.26588       	94.65465       	89.06641       	93.25178       	96.898605      	89.20883       	94.30281       	97.84268       	88.76969       	90.35843       	97.47694       	92.4515        	89.4184        	95.96943       	90.17742       	96.13124       	95.57988       	88.545906      	96.78486       	93.35794       	84.75102       	100.09344      	96.30737       	82.14283       	99.12556       	95.29768       	85.45468       	97.58774       	95.122635      	87.38798       	95.47203       	93.19249       	93.07694       	98.15919       	87.557045      	90.83526       	104.89026      	87.717094      	87.447845      	107.464264     	90.60665       	86.325005      	96.86166       	93.74202       	95.85596       	96.403046      	89.276596      	96.53747       	93.94278       	86.80992       	98.96569       	95.80728       	85.92024       	96.194466      	96.56304       	89.94886       	94.573006      	97.34232       	89.78474       	93.55146       	94.23877       	93.42799       	96.81767       	89.30873       	93.923454      	96.62174       	92.20665       	91.3527        	98.904816      	95.04894       	85.66707       	91.72936       	95.932816      	93.36812       	92.84452       	92.09148       	95.28492       	92.15043       	91.53712       	97.38679       	94.75062       	89.41288       	94.14937       	97.22181       	94.875         	94.45677       	95.38768       	95.501335      	92.39385       	94.602455      	97.37093       	98.74089       	95.81291       	95.325325      	
95.2126        	89.43294       	94.75895       	97.80069       	86.770035      	93.27412       	95.43393       	87.769424      	97.57309       	95.0996        	88.213066      	96.33495       	95.10008       	86.436905      	97.7555        	96.07075       	84.94972       	97.36319       	93.80555       	87.983696      	98.84135       	92.15364       	86.080246      	97.620445      	92.60302       	88.99779       	98.11899       	90.54448       	89.85222       	101.26899      	92.417816      	89.54166       	103.33952      	90.24023       	89.37047       	94.72746       	93.20539       	95.48056       	98.396484      	91.71048       	93.79725       	97.03032       	90.82384       	93.32194       	98.1325        	90.93737       	92.699265      	97.73441       	94.078476      	94.21017       	96.707405      	94.85741       	93.991776      	96.292         	97.52896       	96.121216      	98.02898       	94.38709       	95.45887       	100.023        	94.961494      	93.4818        	99.71805       	92.78544       	88.92205       	94.567696      	96.98539       	94.88829       	92.066734      	94.84435       	91.485886      	94.70395       	94.77071       	89.894295      	98.68427       	92.256966      	90.451614      	94.11088       	94.09152       	93.9794        	93.86349       	94.00253       	90.29687       	91.39684       	97.724945      	92.59897       	91.81445       	94.579796      	93.65426       	93.25994       	92.81584       	95.074585      	92.77804       	91.47047       	91.88769       	95.86205       	97.179276      	92.57242       	89.01972       	89.89066       	
93.67876       	98.51706       	91.9315        	97.87956       	98.270676      	91.00688       	99.483765      	101.627945     	90.770676      	95.791176      	97.76857       	94.16545       	95.394005      	94.29841       	91.73007       	100.65519      	93.362335      	90.12914       	102.87477      	93.32352       	86.13338       	94.42317       	96.73031       	95.30285       	95.13809       	95.61657       	94.393875      	93.593414      	94.38749       	97.739204      	95.87511       	91.96009       	94.1473        	97.26451       	94.8742        	93.35664       	98.63326       	95.50633       	93.720345      	95.20274       	98.68059       	98.01061       	91.98909       	95.57617       	98.80805       	96.27479       	93.9794        	99.08369       	97.89015       	93.54095       	96.92384       	100.94566      	98.905014      	95.61474       	95.69903       	100.25086      	100.88386      	93.99882       	98.83496       	104.180626     	94.61636       	91.57689       	98.735565      	101.38736      	95.436226      	96.630486      	98.97212       	95.80476       	97.3211        	97.877594      	96.8993        	97.83447       	96.36374       	95.322334      	100.5068       	94.729004      	94.9018        	98.34691       	96.60021       	93.983444      	100.66         	96.302826      	92.823044      	96.184586      	96.805664      	97.303345      	94.14769       	94.74462       	96.34697       	98.82555       	91.74235       	96.99517       	101.99899      	90.40941       	92.19382       	96.06203       	97.263336      	97.15058       	95.9857        	96.34229       	
94.91429       	95.951775      	96.01198       	88.4449        	94.377304      	97.98741       	89.99987       	93.59213       	97.11793       	89.47013       	92.30684       	98.686165      	92.20454       	92.70198       	94.80785       	89.72466       	97.30402       	94.25403       	85.9696        	96.11152       	93.55738       	86.45312       	96.58357       	98.631294      	85.414474      	91.70079       	97.13146       	91.92815       	91.56676       	92.99529       	91.735306      	97.68368       	91.27855       	90.21496       	102.63759      	90.03758       	85.04493       	94.512886      	97.00113       	90.59163       	94.41378       	94.389984      	88.33023       	91.99443       	96.71068       	92.246216      	92.07739       	93.690475      	91.20346       	92.73495       	95.69828       	88.29819       	96.668         	94.35934       	87.0042        	98.323616      	97.974045      	84.99201       	95.6143        	94.99714       	89.30545       	95.01172       	94.00837       	85.79179       	98.64706       	89.834335      	86.4169        	102.76747      	88.3711        	84.88232       	96.55767       	89.62951       	90.56824       	97.0148        	90.745735      	89.27502       	96.00284       	90.15956       	92.21811       	97.35483       	89.88351       	91.265396      	94.387924      	92.09718       	92.5348        	94.62001       	91.55468       	92.23952       	95.634315      	92.981125      	94.886         	93.96225       	90.48182       	93.73138       	97.111244      	92.02199       	91.2882        	93.40047       	95.56306       	96.74027       	
92.611435      	92.68725       	93.9095        	92.945404      	89.42247       	92.46343       	89.30615       	92.91385       	96.74449       	90.56127       	89.38188       	93.38558       	91.60114       	91.70163       	92.37192       	92.60481       	93.35116       	89.53979       	92.16843       	98.439575      	91.49421       	88.990875      	95.06221       	92.167114      	94.177765      	91.61492       	94.26207       	93.67244       	89.83847       	91.330536      	99.74418       	92.56063       	87.017525      	97.28792       	94.219406      	87.79518       	96.54528       	93.8108        	88.0734        	93.44931       	94.288666      	93.306725      	93.55074       	89.43086       	92.72133       	100.129555     	88.89075       	89.906456      	100.9628       	90.13809       	89.754875      	100.632034     	91.47773       	88.38086       	94.3578        	92.98063       	97.12137       	90.96839       	87.57509       	97.788574      	95.025635      	84.89196       	97.22572       	99.44826       	83.39131       	90.28284       	92.247345      	92.0039        	95.02009       	90.797035      	91.169624      	94.66368       	87.39582       	93.0035        	97.27296       	85.52384       	88.24482       	96.66386       	88.88087       	88.02034       	97.1174        	88.65503       	88.79768       	92.481026      	89.71237       	92.943886      	93.2267        	85.68962       	93.799515      	96.34692       	86.67448       	92.31896       	97.3756        	88.06359       	90.77401       	92.83354       	89.40304       	90.34886       	94.50605       	96.42179       	
96.85069       	88.84912       	96.59889       	95.35547       	88.72599       	98.35175       	94.131454      	90.79235       	92.34537       	96.38375       	93.664154      	93.72592       	91.9783        	91.69043       	96.62877       	91.03704       	93.83402       	95.089264      	89.2474        	90.98014       	98.58373       	93.63908       	85.70519       	95.2835        	93.6374        	88.22843       	97.82095       	89.31075       	92.103355      	95.95525       	91.46928       	92.62938       	97.94847       	88.18804       	89.165436      	93.21642       	90.795845      	94.3103        	94.09337       	91.59691       	93.27905       	92.00514       	96.07324       	92.23755       	93.96447       	95.77161       	87.58309       	96.106804      	98.40976       	92.46708       	93.41582       	98.38456       	94.145874      	94.331085      	100.88726      	92.00203       	97.48732       	96.04298       	94.50902       	102.20161      	96.77977       	90.17276       	101.55746      	100.06071      	90.81095       	100.09865      	97.65174       	89.29484       	99.92542       	96.47675       	93.8842        	97.389496      	93.58354       	95.08764       	101.88806      	95.283165      	90.2661        	103.37247      	92.416664      	90.8614        	102.86776      	93.88086       	90.07927       	99.790726      	95.79369       	95.55132       	99.84793       	89.1905        	99.23759       	104.22814      	88.244156      	95.77453       	108.084785     	87.41183       	87.95114       	96.64162       	97.9379        	95.83854       	96.18807       	96.8608        	
99.50216       	86.239296      	96.306526      	92.67442       	90.21981       	102.71092      	91.02489       	90.8763        	101.06808      	89.75184       	93.22664       	98.720375      	90.46879       	90.3956        	96.90864       	90.04939       	95.610146      	97.75143       	88.65644       	96.30627       	95.801895      	89.305176      	96.999214      	97.71689       	86.637         	95.48617       	96.409424      	89.9691        	96.07557       	96.25402       	90.29123       	94.137054      	96.18941       	92.666534      	96.72652       	94.80868       	92.090706      	97.69573       	98.242325      	91.21618       	97.52331       	98.508675      	89.20382       	94.49272       	96.038864      	95.39879       	97.82251       	92.10019       	94.16419       	99.12562       	94.25659       	93.52839       	96.66429       	97.5525        	92.213264      	95.66089       	95.196526      	98.66788       	96.701004      	90.51402       	98.34789       	95.03564       	91.69885       	100.05181      	94.94966       	91.31314       	98.135605      	93.55678       	93.16402       	98.220856      	93.1961        	94.22588       	94.67113       	92.00558       	97.93299       	95.76269       	90.32962       	96.3235        	96.67245       	92.10153       	97.89173       	95.00765       	94.71586       	95.6254        	90.28251       	92.604485      	100.291084     	92.76281       	90.73256       	99.2285        	91.36511       	92.41984       	101.32572      	92.764336      	94.0963        	100.32189      	96.9506        	92.24394       	90.489334      	95.01965       	
89.49299       	101.86311      	86.57955       	92.19421       	100.56184      	91.05751       	92.936035      	102.448975     	89.3712        	93.781525      	96.75664       	88.75984       	98.898605      	96.747116      	86.984665      	98.128525      	96.4181        	89.6554        	97.007904      	99.563225      	88.48412       	95.45739       	98.61039       	90.49569       	98.61541       	95.43823       	91.16954       	98.86967       	98.80611       	90.147995      	101.74536      	97.085625      	90.1494        	96.89721       	96.15036       	95.62928       	101.153595     	94.61699       	91.16889       	101.50541      	98.26744       	87.96615       	101.06123      	96.94825       	92.829155      	95.44748       	96.03104       	100.19571      	96.30933       	91.46455       	95.27035       	97.10485       	93.92604       	93.946495      	99.39534       	94.59972       	93.50658       	94.54021       	97.62175       	95.91043       	92.70946       	97.368454      	94.49999       	92.2263        	98.28288       	93.56629       	92.73902       	94.48368       	92.621475      	96.2622        	93.72246       	92.135414      	94.10392       	95.11913       	92.99431       	95.52965       	97.35599       	89.63131       	92.99391       	97.42239       	92.40682       	94.61376       	91.7617        	95.43311       	97.37194       	93.69685       	95.90883       	99.57227       	93.614784      	90.35988       	94.5383        	95.567024      	94.84819       	94.105804      	95.34734       	94.90002       	94.00565       	93.72743       	93.20151       	95.22924       	
87.631645      	95.19141       	90.94764       	89.00627       	97.21186       	88.955315      	90.37041       	92.39136       	92.43876       	93.31782       	91.585686      	91.23054       	92.04334       	92.601555      	92.71245       	93.789566      	90.64334       	91.79862       	94.8426        	91.92905       	92.23469       	92.80144       	95.12179       	91.07315       	92.43991       	95.31135       	95.1914        	92.667694      	92.6536        	94.57343       	91.07048       	95.56432       	95.529945      	91.6017        	95.33867       	93.86592       	93.520836      	98.11467       	95.23152       	91.651085      	96.609535      	94.62182       	91.608116      	98.67506       	94.3546        	91.903755      	98.665665      	92.71701       	94.18543       	97.76155       	93.54735       	91.875854      	96.333405      	98.19971       	91.37218       	95.76608       	95.02974       	93.98919       	96.259926      	95.34668       	95.27912       	96.115814      	93.626915      	89.91964       	94.46091       	96.71351       	94.44317       	92.89975       	94.23485       	92.904         	94.91413       	97.25997       	88.824455      	96.12094       	95.823814      	87.51652       	94.72501       	95.91878       	92.08721       	91.17844       	95.08527       	93.07113       	95.3488        	92.882065      	89.93082       	97.04501       	88.47249       	91.02552       	99.3908        	89.265015      	87.37948       	98.71596       	92.02199       	88.50385       	97.786575      	98.01367       	91.514755      	90.78702       	90.5432        	93.035416      	
95.00994       	88.543976      	94.59871       	95.39189       	90.198654      	91.99487       	94.96899       	88.75029       	92.43417       	97.02286       	88.410225      	91.89775       	94.463486      	89.652695      	95.18384       	94.23782       	91.01015       	97.12407       	90.19648       	89.625084      	101.30355      	88.005455      	88.24418       	100.59408      	88.76938       	89.03842       	98.84661       	91.06231       	91.250336      	95.62822       	94.58158       	95.55741       	96.403275      	89.208786      	100.30976      	99.02202       	90.0509        	97.57258       	101.79145      	90.06894       	94.454865      	94.640854      	94.66981       	100.65291      	94.550446      	94.623         	99.40579       	93.86114       	98.69854       	98.56412       	94.403404      	96.49684       	98.27786       	94.79994       	99.130196      	98.975746      	94.96001       	99.99687       	95.01604       	97.256386      	102.034134     	94.91136       	93.625885      	101.44198      	96.12476       	92.59683       	101.576164     	92.375595      	94.44332       	97.55961       	94.94066       	95.106735      	97.461624      	92.230385      	92.968765      	93.61757       	95.41642       	98.32917       	95.08965       	94.34347       	95.67826       	97.32807       	95.2179        	93.4104        	100.73023      	95.40905       	93.25782       	98.366264      	100.39415      	97.07427       	93.39494       	99.29967       	98.54029       	96.29582       	100.99388      	99.2871        	97.198074      	99.42135       	98.19168       	96.739876      	
95.44291       	92.52461       	89.41016       	89.46202       	95.68225       	93.972374      	86.46522       	96.29923       	94.15978       	86.74425       	88.90056       	93.90954       	90.191284      	92.98957       	91.08381       	88.22594       	89.817665      	90.95846       	94.957596      	92.27972       	87.57276       	91.474945      	94.07369       	88.37639       	88.01203       	97.45801       	87.75756       	85.18107       	94.70639       	95.36775       	87.89543       	87.864174      	91.60412       	90.957466      	89.15406       	91.366974      	90.497765      	91.62491       	86.32674       	91.715485      	97.15514       	86.142815      	86.04455       	97.8008        	91.12317       	88.5299        	95.77941       	92.67109       	88.57658       	92.47558       	93.76857       	92.627594      	92.13976       	87.46027       	94.3381        	97.16485       	86.12114       	91.695274      	97.52809       	87.65179       	86.27021       	93.034874      	90.5699        	94.49006       	90.3824        	87.74548       	91.844315      	92.428604      	90.38314       	90.58732       	94.95782       	88.88958       	89.063         	92.962105      	94.474106      	90.364655      	89.904655      	89.554115      	90.62756       	92.1775        	89.30216       	90.14427       	90.16704       	90.768585      	86.95191       	93.81641       	91.670135      	88.722694      	91.90701       	91.824165      	90.81324       	93.73823       	94.596924      	87.84794       	95.85554       	92.62374       	87.267815      	89.296196      	95.75984       	98.75092       	
89.21566       	94.497955      	91.4937        	91.935905      	94.91823       	95.41645       	92.23954       	90.577866      	95.96045       	95.332146      	89.885414      	95.07243       	97.97563       	90.574776      	91.02876       	91.90756       	95.100266      	93.63618       	91.94266       	93.840645      	92.70222       	90.89534       	97.02954       	95.53484       	89.65677       	95.369644      	95.83205       	92.46461       	96.25518       	94.98042       	94.24479       	95.48323       	94.841866      	98.26775       	99.28263       	91.45302       	96.232346      	101.1195       	94.1506        	96.59095       	99.61684       	96.43895       	99.29112       	101.96082      	98.2999        	99.77287       	99.34901       	94.550156      	96.19115       	100.28128      	99.22672       	100.42452      	98.1526        	96.63517       	99.60682       	101.32011      	97.01045       	98.422295      	102.450005     	97.052414      	95.28467       	99.86088       	97.352974      	96.62176       	96.484406      	97.61732       	101.37747      	95.763954      	90.85011       	101.3419       	94.09485       	90.57852       	103.57758      	94.88522       	90.66129       	99.785675      	95.44603       	93.59869       	98.103645      	92.92359       	95.708305      	94.174225      	91.276276      	99.559586      	96.42627       	88.63809       	97.22508       	98.65433       	91.60795       	94.08229       	99.52145       	92.59344       	91.44544       	99.14106       	97.93023       	94.106575      	94.49946       	96.20251       	97.59653       	97.55212       	
94.84427       	93.384964      	98.245834      	95.64079       	87.16057       	97.900055      	95.78511       	87.26927       	97.43944       	95.43901       	90.01387       	95.57854       	95.00459       	94.01005       	98.00925       	89.86024       	92.40236       	97.36053       	90.21948       	92.72462       	99.151276      	89.28431       	92.016235      	97.45018       	91.79201       	93.09569       	97.909874      	92.46497       	92.32282       	94.641846      	96.60299       	95.31786       	94.90486       	93.23805       	97.04695       	96.49219       	92.413704      	98.00314       	97.37629       	88.64661       	98.46492       	101.61331      	90.918526      	95.706184      	99.30741       	92.57927       	99.084785      	96.38869       	92.20353       	101.34099      	93.07099       	91.78252       	105.78964      	94.90321       	88.224525      	102.80763      	95.90915       	89.0942        	100.20317      	93.58557       	90.80223       	95.73389       	92.30451       	94.0645        	97.44303       	87.233734      	92.31539       	102.49411      	88.15328       	86.33349       	105.86401      	86.716934      	85.89473       	94.666504      	90.24877       	94.58668       	94.26636       	84.12866       	93.12573       	96.55481       	83.67226       	94.408195      	97.67618       	83.81945       	90.77046       	94.7789        	90.11773       	90.69549       	93.487625      	89.794754      	91.422745      	93.48504       	91.794785      	97.08256       	92.512505      	88.37943       	92.276566      	95.577644      	95.82598       	95.96538       	
95.323326      	96.642426      	98.06121       	84.99063       	96.76308       	92.390854      	86.443184      	99.18318       	88.40394       	87.488434      	97.35303       	86.04027       	88.67809       	97.50989       	87.797554      	89.35913       	95.83217       	87.37395       	89.42447       	98.01245       	83.73844       	91.8374        	95.656685      	86.434326      	93.95181       	96.16768       	87.30325       	94.58684       	100.87126      	89.394485      	97.1254        	100.25546      	89.629845      	93.997406      	93.4279        	96.82265       	97.51026       	94.046295      	93.00732       	98.86555       	97.22978       	94.61888       	97.50859       	99.90456       	94.38478       	94.832405      	103.09771      	100.52658      	93.143875      	99.91336       	102.263054     	95.15621       	100.38948      	100.78818      	99.17518       	97.52686       	97.24212       	103.79526      	101.3463       	93.08993       	99.26933       	102.30074      	95.02087       	95.57523       	99.76934       	96.38444       	90.721924      	97.39277       	99.64612       	95.1245        	91.96056       	95.23923       	97.62694       	94.1364        	91.960365      	96.49109       	98.16972       	86.3796        	91.540375      	95.0805        	96.19298       	92.85399       	92.22827       	94.11447       	92.752686      	94.03919       	97.33704       	93.96861       	91.237076      	98.93641       	99.06592       	94.69197       	100.11948      	98.716385      	97.71601       	97.40657       	103.21231      	102.83959      	100.81916      	99.08003       	
89.087494      	92.52222       	92.44393       	92.59224       	91.74288       	88.53724       	92.931854      	92.63687       	87.682724      	92.521515      	93.176956      	88.510796      	85.31677       	89.97306       	93.82804       	89.308525      	88.00614       	91.03256       	88.11818       	88.747856      	92.40588       	89.435425      	88.38101       	90.282524      	86.01663       	93.04306       	91.9415        	87.99754       	91.764336      	91.624374      	87.82284       	95.655136      	91.21153       	88.780266      	96.13867       	92.33873       	90.18022       	97.376045      	91.3359        	89.36934       	94.34022       	89.52821       	94.78139       	100.00167      	86.459854      	93.26301       	102.98092      	86.45251       	93.64257       	102.044235     	89.61607       	91.21314       	98.860306      	96.68217       	96.551155      	96.16023       	91.58761       	96.57699       	96.427246      	86.5336        	98.11133       	95.34544       	83.04504       	95.82443       	100.20317      	85.86398       	91.95857       	96.04598       	86.10661       	91.85686       	92.99238       	86.98066       	92.871185      	94.651596      	84.14963       	99.56878       	90.529         	80.33157       	94.954384      	88.86077       	86.64725       	94.942986      	93.05401       	84.20996       	94.26385       	91.718636      	87.979904      	97.44005       	90.573105      	91.162346      	93.23707       	92.22497       	92.815796      	95.61986       	94.15474       	89.98136       	93.6623        	100.08898      	99.16044       	98.917         	
89.25156       	92.9951        	92.708206      	88.18937       	94.2607        	88.97718       	92.18371       	88.56616       	87.432785      	97.03028       	91.07304       	85.278534      	93.87208       	92.41959       	87.430626      	92.32087       	96.39159       	85.45277       	90.61063       	92.40861       	89.118164      	94.3929        	86.421455      	88.12663       	95.84872       	85.73383       	88.040634      	96.50782       	86.24569       	89.797905      	102.349075     	90.58639       	88.721565      	97.39863       	87.2959        	97.20255       	101.54021      	88.29007       	94.35617       	104.34001      	88.37308       	92.48383       	106.03886      	85.74695       	93.39884       	99.13231       	90.67526       	100.77623      	98.45439       	90.975876      	100.46345      	99.62774       	92.629684      	102.21374      	101.627716     	90.803215      	100.57446      	102.32475      	91.92198       	101.29449      	97.40721       	92.95906       	97.19241       	96.69172       	93.001495      	98.04251       	94.19177       	90.54373       	98.00465       	94.223434      	89.753654      	97.58557       	94.28053       	84.47413       	94.373985      	98.82968       	84.892876      	90.62586       	93.24841       	87.4327        	92.19826       	89.78475       	89.92498       	92.69206       	86.08557       	88.90494       	100.46349      	87.72712       	86.34626       	101.9489       	93.62182       	88.92796       	102.51863      	96.069756      	92.143875      	98.329994      	100.304276     	99.144966      	97.331535      	98.522835      	
95.269394      	94.053535      	100.60932      	89.98539       	92.577934      	96.77723       	97.78238       	94.123535      	91.756516      	94.553345      	94.413574      	92.928215      	91.91425       	96.152756      	90.65841       	87.965         	94.523506      	95.34628       	90.847046      	89.68921       	95.08957       	90.263176      	88.13114       	96.0605        	90.7684        	91.180046      	92.61197       	93.77178       	93.787315      	90.936104      	94.29492       	97.230255      	97.0251        	92.38701       	95.95056       	97.04796       	90.23082       	97.89918       	97.19397       	94.6091        	95.934654      	93.62566       	95.97427       	100.007286     	93.06741       	94.43812       	102.70867      	91.7288        	96.41777       	105.31776      	94.404655      	94.849495      	101.23202      	100.65828      	98.493256      	96.48219       	98.421196      	101.35091      	93.881966      	91.483246      	97.928154      	96.40967       	88.39891       	88.81871       	92.58318       	95.30546       	89.73054       	91.50411       	92.44467       	88.67976       	91.26599       	94.07358       	87.01127       	90.252975      	92.00616       	86.1064        	93.4683        	90.16687       	87.71614       	91.04171       	89.77307       	87.72665       	93.247345      	90.13347       	86.993546      	89.2281        	86.54339       	91.814384      	97.77231       	84.04025       	89.50713       	99.99981       	88.13585       	92.74443       	100.321655     	97.867836      	90.35845       	91.04503       	97.3593        	98.998856      	
91.285934      	101.49956      	95.94526       	80.202934      	94.85151       	91.18887       	91.269646      	94.127396      	88.95048       	90.62218       	93.321686      	86.457596      	91.73751       	96.21844       	84.60826       	89.658844      	94.80038       	86.90561       	89.34705       	93.1692        	87.02559       	86.41141       	89.465004      	91.63472       	89.87806       	89.21815       	84.59505       	92.61508       	92.232254      	89.885506      	97.76142       	97.772675      	90.692         	92.408325      	95.35481       	94.904976      	96.08226       	93.76562       	95.11512       	95.35792       	93.80008       	99.81403       	95.15492       	93.3119        	98.80309       	98.39169       	94.79176       	97.82756       	102.15011      	94.565025      	95.62533       	101.05525      	101.447845     	96.68212       	96.81463       	98.58163       	99.36858       	96.78125       	92.68506       	96.07987       	93.73559       	89.05321       	94.38692       	95.920494      	87.34035       	91.72831       	94.126495      	86.399284      	93.36613       	91.61525       	86.31618       	92.27613       	87.85727       	87.12191       	97.74121       	85.33011       	86.202095      	98.12122       	85.3661        	85.801025      	99.33777       	85.70653       	86.1483        	94.58243       	89.05075       	88.705734      	93.51199       	86.85188       	94.16401       	96.570274      	86.63817       	96.06618       	101.92037      	89.418976      	94.292595      	99.47354       	97.30704       	97.53989       	98.011475      	101.942314     	
88.093765      	95.95971       	91.194595      	86.72043       	95.58859       	95.79273       	84.67825       	90.76815       	95.680664      	89.967         	90.36673       	91.00802       	92.08928       	94.079834      	89.00178       	90.423225      	99.26583       	86.367035      	85.72938       	89.93578       	87.097984      	92.00509       	91.22126       	87.60768       	86.728806      	89.493935      	93.12373       	92.99447       	86.84518       	92.75551       	98.54709       	88.74885       	95.72823       	99.00895       	92.85994       	89.836655      	98.718414      	97.76351       	92.598076      	94.64376       	95.10865       	95.430405      	96.919205      	92.82027       	101.21303      	94.97221       	90.25151       	101.70391      	101.24724      	92.73022       	97.08107       	102.30358      	95.75274       	96.59964       	103.28211      	99.36475       	96.6432        	96.88571       	97.26796       	95.3742        	92.41541       	92.69603       	96.02298       	94.6867        	90.104904      	95.334564      	94.60462       	90.529144      	87.13648       	91.081406      	95.55673       	92.34793       	89.91663       	90.65137       	87.604385      	91.42944       	92.81441       	89.918945      	89.07118       	93.22957       	88.13691       	87.61498       	96.31656       	85.83077       	90.33094       	91.34262       	87.54585       	92.27885       	93.938         	86.48754       	93.8236        	95.06401       	91.58658       	99.04986       	98.96202       	91.00406       	97.46186       	103.94471      	102.72376      	100.003456     	
92.68794       	88.39066       	88.49803       	93.26277       	84.4684        	90.71188       	95.621994      	81.44781       	89.38658       	95.320404      	80.42757       	90.070724      	95.115005      	84.375         	87.26386       	93.097115      	86.254814      	90.92855       	89.26155       	82.21352       	91.59201       	90.143234      	80.8559        	89.97816       	89.470535      	77.57525       	86.122795      	85.453804      	85.90416       	95.871         	89.686966      	87.033966      	96.73721       	94.76964       	90.517334      	97.08072       	94.11779       	93.37885       	93.37662       	95.37824       	99.60573       	97.72225       	90.179245      	98.89446       	101.75927      	91.501015      	97.54943       	100.487885     	97.59549       	95.34327       	100.23572      	103.578606     	100.48507      	94.4051        	98.177055      	99.520226      	97.10714       	95.979324      	97.75194       	93.18689       	84.35381       	87.572266      	94.759636      	84.987915      	84.260956      	92.881744      	92.38847       	84.670746      	90.5603        	93.429276      	86.22596       	86.30838       	94.08559       	91.99675       	86.64657       	88.969406      	91.07743       	92.47071       	90.01299       	86.819046      	97.82742       	88.2374        	81.19816       	86.833145      	92.25905       	88.12227       	87.339516      	91.0243        	89.291466      	89.92876       	95.22237       	91.50121       	94.28441       	97.35356       	95.01252       	96.28295       	100.0783       	100.141235     	95.73547       	98.231964      	
