# www.neaspec.com
# Scan:	 	Whitelight Imaging
# Project:	 	20251007_PS
# Description:	 	
# Date:	 	10/07/2025 16:39:17
# Scanner Center Position (X, Y):	[µm]	49.66	48.17	 
# Rotation:	[°]	0	 	 
# Scan Area (X, Y, Z):	[µm]	5.000	5.000	0.000
# Pixel Area (X, Y, Z):	[px]	100	100	1
# Interferometer Center/Distance:	[µm]	548.634	0.000	 
# Averaging:	 	1	 	 
# Integration time:	[ms]	5	 	 
# Wavenumber Scaling:	 	1.000000	 	 
# Laser Source:	 	4.5-15 µm nano-FTIR laser
# Detector:	 	R
# Target Wavelength:	[µm]	6.002	 	 
# Demodulation Mode:	 	Fourier
# Tip Frequency:	[Hz]	238,800.109	 	 
# Tip Amplitude:	[mV]	13.000	 	 
# Tapping Amplitude:	[nm]	69.706	 	 
# Modulation Frequency:	[Hz]	0.000	 	 
# Modulation Amplitude:	[mV]	0.000	 	 
# Modulation Offset:	[mV]	0.000	 	 
# Setpoint:	[%]	79.75	 	 
# Regulator (P, I, D):	 	4.206850	8.625812	1.000000
# Tip Potential:	[mV]	0.000	 	 
# M1A Scaling:	[nm/V]	0.426	 	 
# M1A Cantilever Factor:	 	1,000	 	 
# Q-Factor:	 	452.3	 	 
# Version:	 	2.1.11536.0
92.678055      	92.57284       	92.611664      	92.38766       	92.42288       	92.381035      	92.30559       	92.3024        	91.879196      	92.57215       	92.90797       	92.31369       	93.57275       	92.16728       	90.87143       	93.46608       	93.49091       	93.201454      	93.10851       	92.55753       	93.17579       	92.90515       	92.76517       	93.437775      	93.7458        	92.641815      	92.55199       	92.997116      	92.10308       	92.77314       	93.51524       	93.10652       	93.17461       	93.45682       	92.36882       	92.76904       	92.396065      	92.21741       	92.12676       	92.24547       	91.72979       	92.78856       	92.85957       	92.563995      	93.082245      	93.09419       	92.63002       	93.83778       	92.5382        	92.75081       	92.950645      	92.3372        	92.78784       	93.6906        	92.7448        	92.67566       	93.17334       	92.62082       	92.373184      	93.58113       	92.67613       	92.19754       	92.84549       	92.22126       	92.47159       	93.0076        	92.401215      	92.92866       	93.061066      	92.19453       	92.63217       	93.25429       	92.41656       	92.30333       	90.47547       	90.23251       	92.77538       	92.397385      	92.83493       	93.00853       	93.24012       	92.9431        	93.80052       	92.89295       	92.641594      	93.47299       	93.006256      	93.060585      	93.14007       	92.20996       	93.31457       	93.346176      	93.680954      	93.79084       	93.59809       	93.72046       	93.84801       	93.516495      	92.97784       	93.46717       	
93.80516       	93.094986      	92.56131       	92.86926       	93.923454      	92.85201       	92.83532       	93.12735       	93.3755        	92.82158       	93.13055       	93.031654      	92.05577       	90.31137       	89.168655      	89.83812       	93.5207        	93.389656      	93.16056       	93.88349       	93.26085       	93.32594       	93.62642       	93.182526      	93.800446      	93.56391       	93.12965       	93.58993       	94.12781       	93.11008       	93.19353       	93.14983       	92.59676       	93.459114      	92.94367       	92.833244      	93.38583       	92.684616      	92.78332       	92.699875      	91.80827       	92.63224       	93.23497       	92.42868       	92.32645       	92.64365       	92.10031       	91.94667       	91.799995      	91.81646       	91.951096      	92.0197        	90.78797       	91.82938       	92.77605       	92.102905      	91.71387       	92.42563       	92.151695      	91.88581       	91.99681       	91.24523       	91.63021       	90.90639       	91.257866      	92.23544       	91.95601       	91.60889       	91.898155      	91.38554       	91.43567       	91.978065      	91.57479       	91.22388       	91.19301       	90.72829       	91.24841       	91.40311       	90.4775        	91.0631        	89.96828       	90.360016      	91.65625       	91.172066      	90.623764      	91.42859       	91.238945      	90.91276       	91.27049       	90.83855       	90.8643        	90.859825      	90.31877       	91.51521       	91.875404      	89.95264       	90.4888        	92.46019       	91.59803       	92.72801       	
92.89542       	91.9486        	91.953316      	93.32276       	93.86253       	92.966255      	93.282974      	93.20551       	92.88341       	93.1742        	93.6919        	93.4292        	93.65927       	91.031784      	89.54058       	90.97012       	93.50622       	93.093155      	93.789925      	93.579865      	93.092804      	93.84962       	93.29549       	92.32514       	93.28264       	92.59026       	92.42178       	93.28657       	92.883316      	93.120575      	93.38591       	92.040405      	92.33729       	92.97799       	92.4159        	93.04076       	92.70968       	91.32878       	92.18403       	92.54296       	92.19777       	92.55799       	92.150024      	91.5616        	92.37326       	91.25472       	91.787674      	91.643         	91.42932       	91.62545       	92.436104      	91.25256       	91.86468       	92.360664      	91.8908        	92.28967       	92.1184        	91.82171       	93.01445       	91.83637       	91.840225      	92.4286        	90.969475      	90.80668       	92.316086      	92.507576      	92.00619       	92.40701       	92.10182       	91.34643       	92.36191       	92.10311       	92.81379       	92.86776       	92.49157       	92.899574      	92.24789       	91.72639       	92.35434       	92.71123       	92.27588       	92.67115       	93.212036      	92.031654      	92.37594       	92.10096       	91.59856       	92.6561        	92.84718       	92.98536       	93.67404       	93.19869       	92.72659       	93.351555      	93.19657       	92.23331       	91.63823       	92.52123       	92.79647       	93.36369       	
91.51503       	92.20985       	92.69644       	92.687744      	91.56292       	90.50293       	92.87081       	92.67604       	92.82353       	93.01164       	92.42671       	92.842476      	93.31817       	92.82718       	91.63414       	91.507706      	92.57238       	93.23345       	92.45568       	92.3149        	92.83842       	92.05501       	92.34073       	92.56592       	92.42501       	92.40083       	92.76151       	92.6506        	92.83153       	92.27633       	92.289215      	92.94877       	92.085846      	92.50666       	93.47301       	92.64123       	92.52396       	93.14571       	92.619095      	92.81827       	93.25701       	92.870224      	93.29231       	93.30368       	92.18523       	93.67555       	93.206505      	92.3678        	93.74495       	93.55423       	92.904854      	93.69662       	93.55679       	93.29985       	93.72519       	92.904625      	93.47691       	93.97901       	93.45513       	93.80783       	93.638535      	92.87517       	93.40549       	93.10219       	92.64091       	93.40169       	94.135086      	93.552124      	93.79987       	93.65129       	92.600914      	93.246056      	93.058075      	92.99892       	93.79574       	93.21092       	92.803474      	93.04079       	93.18726       	93.09187       	93.936005      	92.95414       	93.16063       	93.47027       	92.59626       	93.58357       	92.510864      	92.3801        	92.71988       	93.11414       	92.90968       	93.52321       	93.22193       	91.47279       	92.321205      	92.89197       	92.63176       	94.02809       	93.366776      	92.85249       	
93.93343       	93.50321       	93.499985      	93.476616      	91.53437       	89.786575      	90.884125      	94.1019        	94.02974       	93.57819       	93.71261       	93.14201       	92.83924       	93.73361       	93.13863       	93.62198       	94.37444       	92.73479       	93.13022       	93.392715      	93.44543       	93.61637       	94.03808       	93.024605      	93.931366      	93.673904      	93.549614      	93.4649        	93.87313       	94.18534       	94.218704      	94.0852        	93.4431        	93.1755        	94.19923       	93.3957        	93.71364       	93.414795      	93.0851        	93.88254       	92.79619       	92.93041       	93.92009       	92.4729        	92.733185      	93.37668       	93.444786      	93.12488       	94.20578       	91.78539       	93.21595       	93.95013       	93.63899       	94.18993       	94.30656       	93.69384       	93.351654      	93.961555      	92.924835      	93.55712       	93.72675       	92.843475      	93.2283        	93.956795      	93.586075      	93.3503        	93.78386       	93.07909       	92.89775       	93.3897        	93.19592       	92.88095       	92.685745      	92.81816       	92.92504       	92.93731       	92.684525      	92.765915      	92.58879       	92.67273       	92.84486       	92.75986       	92.74785       	92.8885        	93.18          	92.79851       	93.41844       	93.33348       	92.865524      	93.61406       	93.537766      	93.89026       	93.95068       	93.3955        	92.933876      	93.49313       	93.51086       	92.18171       	93.158676      	92.80469       	
92.88366       	92.59513       	92.9137        	92.95138       	91.660385      	90.230034      	90.363815      	92.97998       	93.41493       	93.621185      	93.83576       	93.90782       	93.815506      	93.251144      	93.14493       	93.56935       	93.729256      	93.3344        	93.588295      	93.40845       	92.85357       	92.215126      	93.00469       	92.89958       	93.431564      	93.01369       	92.78356       	93.09525       	92.82177       	93.0576        	93.18903       	92.688896      	92.138336      	93.115395      	93.90748       	92.58879       	92.60091       	92.15538       	92.665375      	92.848755      	92.33159       	93.09708       	92.805916      	93.087265      	93.43196       	93.61096       	92.819695      	93.12056       	92.99243       	92.7666        	93.346436      	92.90828       	92.217575      	93.78825       	93.33177       	93.382195      	94.16906       	91.814766      	90.250626      	91.435905      	93.44673       	93.89722       	94.705215      	93.767265      	93.81361       	93.69782       	93.35869       	94.06908       	93.89965       	92.871635      	93.254845      	92.8357        	92.64279       	93.17097       	92.59506       	93.022224      	93.520676      	92.64566       	93.76277       	92.74374       	92.33271       	94.16924       	93.78697       	93.83093       	94.632935      	93.71953       	93.03057       	93.73044       	93.793755      	93.142296      	94.09811       	93.317474      	93.35619       	93.83715       	93.890366      	93.51663       	94.281784      	93.63392       	93.55204       	94.23048       	
92.54145       	92.71498       	93.025604      	92.96369       	92.59492       	92.35417       	92.721466      	93.30264       	93.00389       	92.486206      	92.50374       	92.20499       	92.36417       	92.36778       	91.91613       	92.374664      	92.82201       	92.3114        	92.73515       	92.751724      	91.74407       	92.46019       	92.51816       	92.33641       	91.19611       	88.96563       	89.622284      	92.61323       	92.997345      	92.45834       	92.82795       	92.980484      	92.6805        	93.47029       	93.72551       	92.819534      	93.3039        	92.628334      	93.139984      	93.00827       	93.012924      	92.84013       	92.88356       	92.52292       	92.489296      	93.030075      	92.59984       	92.425896      	92.59774       	92.322525      	92.1006        	91.78563       	92.53458       	92.73246       	93.56555       	92.65419       	93.18128       	91.388885      	88.76668       	89.41021       	92.14851       	93.61827       	93.921265      	93.29845       	93.147675      	93.43407       	93.21623       	93.16409       	93.956         	93.21671       	92.84408       	93.08223       	92.83216       	92.85753       	92.571465      	92.84486       	92.00894       	91.78883       	92.61522       	92.35522       	92.70951       	92.234985      	91.94698       	92.54573       	91.70208       	91.88339       	92.84691       	92.65378       	92.96769       	92.21556       	92.39115       	91.87348       	92.133804      	92.03231       	92.74278       	92.585976      	92.54447       	91.95091       	91.88258       	92.4576        	
93.00848       	92.59631       	92.63648       	92.919815      	93.09178       	93.69084       	92.888336      	92.7303        	93.60434       	92.55759       	91.86795       	92.20089       	92.317924      	92.91668       	92.80988       	92.26854       	92.2491        	93.09147       	92.406364      	92.22055       	92.68073       	92.83458       	92.208725      	92.63018       	91.33737       	89.342255      	89.32832       	92.543785      	92.572235      	92.32742       	91.83756       	89.88387       	91.928535      	92.21688       	92.86109       	93.124565      	92.50284       	92.11527       	92.75949       	92.46634       	91.833084      	91.03079       	92.27006       	92.393814      	92.341934      	92.538284      	92.38087       	92.31386       	92.74045       	93.16309       	92.142136      	91.93173       	91.97233       	92.804794      	92.652794      	92.513016      	92.27257       	90.88048       	89.025055      	89.20528       	90.797485      	92.195175      	92.831535      	92.39918       	92.619865      	93.125595      	92.72877       	92.62609       	92.690636      	92.40842       	92.48455       	92.42502       	92.787544      	92.7138        	92.97262       	93.055534      	92.80649       	93.16444       	93.1302        	93.34102       	93.551926      	93.28413       	93.44252       	93.163376      	92.768326      	93.54597       	93.197075      	93.46631       	94.09258       	94.0724        	93.82975       	93.65295       	93.767624      	93.10994       	93.87765       	93.78463       	93.42955       	94.06977       	93.7623        	93.77078       	
92.15805       	92.367584      	92.48982       	93.03621       	93.22385       	93.36522       	93.06803       	93.53162       	93.611465      	92.78448       	93.096565      	93.00826       	93.35928       	92.94258       	93.30421       	93.55645       	92.999146      	93.65324       	93.28974       	93.61034       	92.85327       	92.76295       	92.85571       	92.94832       	92.66072       	92.70158       	92.85192       	92.71259       	92.558174      	93.025986      	93.20023       	91.71046       	92.907555      	93.02565       	92.3591        	92.372406      	93.847824      	93.61513       	93.761856      	93.562096      	92.44484       	90.922104      	91.7325        	93.871895      	93.5027        	93.04019       	93.85098       	93.878265      	92.405716      	91.19807       	93.70252       	93.80225       	93.19751       	92.96903       	92.71141       	93.115715      	93.653755      	93.24238       	93.33899       	93.48714       	93.1173        	93.239044      	93.13237       	92.89538       	93.25703       	93.686646      	92.13973       	92.06031       	93.00676       	91.83991       	92.698715      	92.597946      	92.78939       	92.24124       	91.84105       	92.38151       	92.88156       	93.04883       	92.74831       	93.39885       	93.204155      	93.6172        	93.8864        	92.65474       	92.86313       	93.931015      	93.95081       	92.82589       	93.99512       	93.73282       	93.736565      	92.52556       	92.7214        	92.73885       	92.55973       	93.244804      	93.01144       	92.970985      	93.34643       	93.20677       	
93.21176       	93.29894       	93.51835       	93.321625      	92.32848       	92.87306       	92.77232       	92.986855      	93.100716      	93.059494      	93.10661       	93.03661       	93.41431       	93.25741       	93.42949       	94.22994       	92.07665       	93.70177       	93.70497       	93.035416      	93.89964       	93.34155       	93.31773       	92.814606      	92.71517       	92.51708       	93.09542       	93.395515      	93.026855      	93.426865      	93.121254      	92.62725       	93.58896       	92.40904       	93.03885       	93.2007        	92.47997       	93.267586      	93.02089       	92.83296       	93.09931       	92.57394       	92.38705       	92.893715      	92.22184       	92.50107       	93.183846      	92.139656      	91.73687       	92.1252        	92.19059       	92.82775       	92.052216      	92.46325       	93.01075       	92.05919       	92.531784      	92.44551       	91.78053       	91.57723       	92.18361       	91.75008       	92.05107       	91.39537       	91.59313       	92.07747       	91.97447       	92.041916      	92.26042       	91.97079       	91.84541       	92.56905       	91.754715      	92.09527       	92.48331       	92.485725      	92.46664       	92.50377       	92.983505      	92.2389        	92.58641       	92.78324       	91.36667       	89.73083       	88.7894        	90.82038       	93.03873       	93.14376       	92.70731       	93.06792       	92.90301       	93.209625      	93.605484      	93.22574       	92.867966      	92.89389       	92.739716      	92.8304        	93.484795      	93.75752       	
93.51279       	92.77913       	92.40268       	92.529785      	93.72389       	93.69097       	93.394684      	93.71861       	92.822754      	92.537384      	92.78403       	92.615776      	93.228874      	92.73384       	92.22031       	93.204994      	92.7067        	92.48569       	92.951775      	92.13016       	92.41126       	92.7413        	92.59481       	92.59097       	92.95904       	92.18645       	92.52449       	92.941696      	92.78273       	92.252075      	92.43684       	92.63766       	92.55467       	92.09921       	92.118744      	92.128044      	92.86153       	92.96761       	92.623055      	92.69219       	92.92053       	93.31111       	93.25056       	93.04304       	92.764435      	92.594536      	92.76873       	92.74245       	92.77755       	92.94047       	92.93096       	92.9126        	92.321205      	93.08293       	92.74372       	92.88984       	92.956375      	93.499146      	93.1065        	93.30634       	93.02679       	93.20084       	93.04186       	93.01598       	93.383286      	93.15142       	92.84328       	92.83467       	93.9465        	93.11635       	93.30638       	93.908325      	92.94841       	92.810104      	93.15903       	93.18534       	92.84178       	92.85824       	92.646065      	92.822784      	92.28551       	92.311226      	93.03511       	90.16463       	88.8165        	91.20825       	93.549736      	92.85137       	92.72881       	93.13622       	92.366035      	92.333305      	92.159424      	93.09743       	92.9515        	92.763374      	92.37183       	92.953606      	92.91124       	93.02457       	
94.728806      	94.188446      	93.81627       	93.813835      	94.15834       	94.21899       	93.9418        	93.45108       	93.60335       	93.78325       	93.32277       	93.96644       	93.541885      	93.01851       	93.707405      	92.89706       	93.22485       	93.739876      	93.56804       	92.98922       	92.90477       	93.428635      	93.32999       	93.93221       	93.26623       	93.51433       	93.74373       	93.07874       	93.43261       	94.39809       	94.270905      	93.69193       	93.76317       	93.063065      	93.5075        	93.64726       	92.44056       	92.20895       	92.54863       	92.6764        	92.34895       	93.88881       	93.389496      	93.32483       	93.545815      	92.98886       	91.683014      	93.949394      	93.38619       	92.95947       	93.89412       	93.22314       	93.554596      	93.62228       	92.84244       	92.723114      	92.3967        	92.80865       	93.36659       	93.45888       	93.50062       	93.23184       	93.10804       	92.912094      	92.67192       	92.72275       	92.42351       	92.945305      	92.7944        	93.47118       	92.90138       	93.52355       	93.93393       	93.432304      	93.448326      	93.93319       	93.51046       	93.89318       	93.985054      	93.13978       	93.372505      	93.70173       	93.751305      	94.34291       	93.521645      	92.7025        	93.07164       	92.81681       	92.43014       	92.954544      	92.707695      	93.0751        	91.97534       	91.67349       	93.07282       	93.3419        	92.75334       	93.14853       	93.21247       	93.05269       	
93.131454      	92.69784       	92.44706       	92.65563       	92.41307       	92.5623        	92.66879       	92.61869       	92.96623       	92.73926       	92.763374      	92.520966      	92.87637       	92.79155       	93.09972       	93.122856      	92.64657       	92.445755      	92.72093       	92.81124       	93.09016       	92.07735       	92.4205        	92.98881       	92.49964       	92.31872       	92.66607       	92.5385        	91.87497       	92.407875      	92.5816        	92.335976      	93.069595      	92.553696      	92.04381       	90.88626       	92.52954       	92.444084      	92.49576       	92.749565      	92.440765      	93.00341       	91.694244      	91.150375      	92.44142       	91.64119       	92.165596      	92.487915      	93.026596      	92.18297       	93.25891       	93.38231       	93.00035       	93.04117       	92.15407       	92.107994      	92.56609       	92.70601       	92.10674       	92.51987       	91.85765       	92.16959       	92.29971       	91.96078       	91.899254      	91.98302       	93.012375      	92.79581       	93.049965      	92.599945      	92.89173       	90.54276       	91.2919        	92.80122       	92.54229       	92.92964       	93.43566       	93.114716      	93.02101       	93.62393       	92.77804       	93.07165       	93.694626      	92.79678       	93.80306       	92.46461       	93.34915       	93.676704      	93.33379       	93.565384      	93.716156      	93.19213       	90.80176       	88.58015       	90.96333       	93.25723       	93.435074      	93.090866      	92.74336       	92.96492       	
91.864006      	92.45014       	92.9812        	93.08557       	93.14538       	93.05452       	92.91769       	94.2131        	93.519905      	92.21924       	93.17178       	92.61129       	93.53898       	93.08133       	93.57753       	93.98893       	93.595665      	93.40043       	93.00721       	93.267525      	93.19022       	93.47607       	93.45584       	93.15933       	92.95558       	93.03476       	93.43855       	92.80629       	93.56771       	92.997696      	93.28719       	93.398026      	92.935196      	93.090324      	92.781425      	93.180504      	93.12521       	93.62971       	93.5776        	93.82774       	93.68928       	93.9279        	93.94784       	93.498764      	93.34879       	93.45206       	93.5669        	93.044136      	93.74091       	93.83638       	93.866776      	94.133545      	94.04248       	93.4454        	93.728325      	93.59286       	92.86063       	93.26485       	93.70573       	93.31583       	93.02178       	92.85786       	93.164116      	92.861275      	93.36174       	93.366806      	93.00169       	93.03856       	93.04232       	93.14262       	93.49616       	93.96842       	93.88342       	93.23519       	93.62723       	93.5486        	93.954506      	93.90734       	93.494576      	93.13428       	93.28326       	92.73485       	93.50265       	93.111885      	93.64511       	94.16654       	93.532         	93.85324       	94.84318       	93.412834      	91.49128       	92.87602       	93.36606       	93.06998       	93.58137       	93.2605        	93.32195       	94.11857       	93.743484      	93.661545      	
92.91534       	92.55546       	92.30855       	92.80101       	92.950935      	93.08651       	92.87747       	92.52579       	93.325005      	93.18564       	93.50612       	93.60436       	92.98929       	92.935234      	92.97303       	92.28328       	92.33171       	92.28587       	92.52474       	92.5822        	93.234634      	92.804306      	92.69653       	93.18061       	92.5024        	92.586624      	92.89517       	92.1174        	92.51545       	92.78748       	92.640656      	93.04196       	92.79304       	92.66639       	92.74524       	92.30336       	92.63132       	92.349396      	92.70576       	91.95097       	92.13909       	93.18286       	92.711945      	92.258705      	92.7817        	92.466194      	91.74967       	92.59006       	90.68858       	92.43242       	92.27607       	91.38488       	92.05998       	93.35623       	93.301155      	93.44495       	92.62005       	92.18066       	92.61281       	92.59819       	92.427475      	92.1118        	92.3799        	92.49368       	92.240524      	91.89526       	92.92758       	92.989624      	93.38135       	93.0962        	92.73454       	93.13797       	93.372696      	92.94653       	93.614105      	93.719345      	93.288155      	93.62489       	93.51758       	92.75325       	92.41185       	92.63023       	92.625984      	93.08475       	92.282394      	92.433105      	93.25797       	93.28659       	93.1268        	93.62683       	92.53063       	92.25994       	94.02481       	93.78395       	93.178696      	93.84162       	94.05652       	93.64621       	90.61198       	91.05534       	
93.14316       	92.41896       	92.446815      	92.650055      	92.52035       	92.459755      	92.59557       	92.43307       	92.566925      	92.70966       	92.810165      	93.55314       	92.751656      	90.90287       	92.20318       	92.88713       	91.169525      	93.03395       	93.12485       	93.09753       	93.40231       	92.399734      	92.432236      	92.10823       	92.70231       	92.16326       	92.01412       	91.45202       	91.35174       	91.6902        	91.479004      	92.01261       	92.65938       	92.35787       	92.52821       	92.36237       	92.89326       	93.08365       	92.66319       	92.9409        	93.238815      	93.06774       	93.2351        	93.291466      	92.96529       	92.80226       	92.25802       	92.29106       	92.459946      	92.28343       	91.82228       	90.750114      	89.51282       	91.87249       	93.03605       	92.76388       	92.05943       	91.90246       	92.5459        	92.17728       	92.31132       	92.23428       	92.06581       	92.40547       	92.44083       	92.36806       	91.87891       	91.609146      	91.741135      	91.286736      	91.32423       	91.230705      	91.44781       	91.38089       	91.57247       	91.89689       	92.01246       	91.56315       	91.73537       	92.00152       	91.78877       	91.98774       	92.20061       	92.03326       	92.21208       	91.958755      	91.603325      	91.733         	92.029915      	92.0092        	92.17744       	92.520615      	91.936195      	91.84167       	91.41029       	91.71558       	92.633835      	91.94005       	90.98373       	88.89924       	
92.89735       	92.299614      	92.24886       	92.183525      	92.61551       	92.34579       	91.97962       	92.17791       	90.17641       	91.333466      	92.765045      	92.62816       	92.22647       	90.38871       	90.728485      	92.618546      	92.69722       	92.33034       	92.2782        	92.00122       	91.983955      	92.646515      	92.449066      	92.831696      	92.50245       	91.42376       	91.697136      	92.90967       	93.34684       	93.219124      	92.61689       	93.27624       	93.88058       	93.81905       	94.36977       	93.76214       	92.35947       	93.08128       	93.96199       	94.4384        	94.00912       	93.971886      	94.09108       	93.70793       	93.6039        	93.8853        	93.98157       	93.51926       	93.53718       	93.16288       	93.720215      	93.5544        	93.27966       	93.6912        	93.46851       	93.585815      	93.096634      	92.69134       	93.47689       	92.9518        	92.93438       	93.11452       	92.87181       	93.29504       	93.4344        	91.7387        	92.57515       	92.501396      	92.96248       	93.240555      	93.224106      	93.375656      	93.61484       	94.039345      	93.75197       	93.68443       	93.36176       	92.37111       	92.92025       	93.71655       	93.46886       	93.41035       	93.32089       	92.71521       	93.03852       	93.35843       	93.00408       	92.8765        	93.57271       	93.382286      	92.55659       	93.6318        	93.184326      	93.266464      	92.5288        	92.57955       	92.70604       	93.42453       	92.38099       	92.55212       	
92.03474       	91.69386       	91.813774      	92.29081       	92.369736      	92.90108       	93.20769       	92.23123       	91.872604      	91.98157       	92.35006       	92.70866       	93.42726       	91.74292       	92.3839        	93.21195       	92.37309       	93.20446       	93.59038       	93.07938       	93.44439       	93.623184      	92.97507       	93.168106      	93.62094       	92.643906      	93.38118       	93.27727       	92.36453       	93.340614      	93.057045      	92.77841       	92.908455      	93.44967       	93.40424       	91.205795      	89.42443       	90.29363       	93.55383       	94.0721        	93.847336      	94.21778       	93.749176      	93.81796       	93.85474       	93.94911       	94.11435       	94.29875       	94.181564      	94.52693       	94.15843       	93.58113       	94.48396       	94.414444      	94.565056      	94.142075      	93.582535      	94.09299       	94.303535      	94.29114       	93.898384      	94.36552       	94.30496       	93.97025       	94.71761       	94.46597       	94.36072       	94.44231       	93.28614       	93.304794      	94.09492       	93.49256       	93.64198       	93.62006       	92.86087       	92.59372       	93.10668       	93.259346      	93.72657       	93.27177       	93.16436       	93.67281       	93.94266       	93.58851       	93.37882       	93.27215       	93.181015      	93.69767       	93.65426       	93.77587       	93.8735        	93.10965       	93.09447       	93.60806       	93.62878       	93.808914      	93.41408       	92.901726      	93.18503       	93.23762       	
93.26883       	93.381195      	93.12533       	93.10327       	93.03589       	92.52009       	93.31557       	93.05083       	93.81685       	92.4535        	93.025185      	93.60966       	92.95273       	92.127815      	93.44955       	93.392525      	93.43568       	94.03026       	92.76644       	92.94212       	93.505356      	92.55977       	92.88885       	93.03156       	92.43836       	92.07645       	93.13691       	92.87492       	93.41641       	93.176155      	92.85605       	93.25326       	92.942535      	92.61248       	92.7632        	89.72013       	89.103         	90.45044       	92.15886       	93.31761       	93.86685       	92.83251       	93.01207       	93.737305      	93.04545       	92.78387       	92.85213       	92.24803       	92.43305       	92.25868       	91.78218       	92.23564       	92.93405       	92.65086       	93.18948       	91.99882       	92.38452       	93.46365       	93.3287        	93.50738       	92.54125       	93.40584       	92.59387       	93.02616       	92.89448       	92.942245      	93.20395       	93.366875      	92.89384       	93.60616       	93.36435       	93.067665      	93.30103       	93.7846        	93.23375       	92.98035       	93.6503        	93.1759        	92.61392       	92.660225      	93.05395       	92.90857       	92.227005      	92.33766       	92.89424       	93.21844       	91.634575      	91.756424      	93.67456       	92.94865       	92.69444       	93.42871       	92.71431       	92.825424      	93.67774       	93.70558       	93.546036      	93.65601       	93.17193       	93.87741       	
92.98255       	93.251915      	92.7706        	92.63478       	92.0498        	92.93291       	93.00379       	91.50278       	92.47814       	92.67362       	92.24784       	92.32657       	92.113266      	92.08747       	92.355034      	92.14761       	92.63549       	92.969246      	92.476166      	92.05683       	91.65674       	91.50082       	92.243904      	93.519615      	92.22458       	90.2014        	93.26078       	92.75682       	93.0419        	93.29308       	92.19561       	92.803825      	93.22892       	91.98976       	93.14567       	91.82589       	90.50825       	92.00441       	92.99374       	93.00204       	93.48817       	92.852554      	92.568306      	93.07636       	93.20434       	93.12554       	93.82614       	92.51325       	92.37141       	93.010284      	92.11354       	92.67217       	93.23512       	92.78645       	92.98262       	91.86781       	92.86732       	93.496826      	92.76159       	92.41817       	93.09406       	93.24096       	92.54898       	93.21762       	92.51695       	92.25884       	93.65073       	92.554115      	92.48392       	93.14371       	93.344406      	93.193146      	93.47222       	92.665115      	92.9386        	94.416145      	93.088486      	93.161514      	92.81092       	92.67148       	92.32897       	92.89103       	92.93487       	93.09933       	93.083534      	92.42193       	92.966934      	92.33574       	92.42508       	92.97259       	93.20895       	91.99735       	92.82874       	93.32258       	93.03714       	93.59975       	93.31483       	92.75429       	93.32223       	92.59611       	
93.002304      	92.72641       	92.640465      	92.238045      	91.57081       	92.354576      	91.98791       	92.32144       	92.08881       	91.82111       	92.92985       	93.09603       	92.644135      	92.64806       	92.857056      	92.19188       	92.97191       	92.76123       	92.68883       	93.371124      	92.98613       	93.45801       	93.11567       	92.35053       	93.044014      	93.41475       	92.66381       	91.27043       	92.21168       	92.51869       	92.09407       	91.691025      	92.260704      	92.55309       	92.304375      	92.93957       	92.633026      	92.557465      	92.92876       	92.88475       	92.01451       	92.26957       	92.129555      	91.89074       	92.96106       	91.42455       	92.02248       	92.30583       	91.16805       	92.42277       	91.94735       	91.24613       	92.2421        	92.25854       	91.08569       	92.252396      	92.209366      	92.056206      	92.09079       	91.661865      	92.262245      	92.453156      	93.08016       	92.02181       	92.46367       	92.876724      	92.48376       	92.556564      	92.23658       	92.192986      	92.74262       	92.35216       	91.90661       	89.39174       	88.32087       	91.16224       	93.101974      	92.565544      	92.228195      	92.27635       	91.92992       	92.22984       	92.7891        	92.71319       	93.40508       	92.606064      	92.00444       	92.89525       	92.20557       	92.29548       	92.91039       	91.831055      	92.596855      	93.18016       	92.27441       	92.269745      	93.4544        	92.91612       	92.67846       	93.23881       	
92.24886       	92.53019       	92.31361       	92.197334      	92.14556       	92.12416       	92.408066      	92.0664        	91.74399       	91.458725      	91.38722       	91.51897       	91.48862       	91.28019       	91.661736      	91.720535      	91.29553       	91.565056      	91.856094      	91.41333       	91.759384      	91.93861       	91.80022       	91.673904      	91.155235      	91.294136      	91.88208       	90.26863       	91.179924      	92.607376      	91.314095      	91.481064      	92.33646       	91.54801       	91.585785      	92.56346       	91.91541       	92.01366       	92.05645       	91.61176       	92.08381       	92.05335       	91.6606        	92.66011       	92.08599       	91.58292       	92.79286       	92.65796       	92.213005      	93.04405       	92.121506      	92.78051       	92.48095       	91.56042       	91.77807       	92.71337       	91.588875      	92.56022       	92.3835        	91.94857       	92.95161       	92.18763       	90.36617       	92.63608       	92.1171        	91.72984       	92.82514       	92.12123       	92.07304       	93.14129       	92.398766      	93.259514      	92.16955       	88.76515       	89.24064       	90.63127       	92.6176        	93.52592       	93.138275      	91.65736       	93.919815      	94.56641       	92.859116      	93.81197       	93.42896       	93.13692       	94.13464       	93.62268       	92.90726       	94.16963       	93.509766      	93.48367       	93.95761       	93.73954       	93.74915       	93.921104      	93.86342       	93.87304       	94.041145      	93.10609       	
93.70258       	92.60524       	93.28662       	94.06242       	94.1548        	93.18502       	93.08824       	93.774506      	92.91711       	93.11571       	93.92673       	93.29778       	93.31185       	94.31591       	93.79351       	94.626656      	95.2068        	94.1576        	94.64648       	94.22929       	94.06979       	94.833694      	94.585434      	94.220146      	94.87223       	94.81041       	93.932         	94.40246       	93.65303       	93.561195      	94.002945      	93.45242       	93.37741       	92.93216       	92.86951       	94.242744      	94.136925      	93.355095      	94.11669       	94.62257       	92.24653       	93.62548       	94.72846       	93.746864      	94.17384       	92.21831       	89.954765      	92.98942       	95.110886      	94.29201       	94.595535      	94.16338       	94.1294        	95.017296      	94.246254      	93.94644       	94.721664      	93.83252       	93.50087       	94.34374       	93.42242       	93.96073       	94.489586      	93.38702       	94.5641        	94.958206      	93.43888       	94.7227        	93.93597       	93.38126       	94.552704      	93.853424      	93.22689       	91.5378        	90.20604       	91.04811       	94.62303       	93.3743        	93.286446      	94.26507       	92.92399       	92.83989       	93.67423       	92.686005      	93.380936      	93.34052       	92.280846      	94.1255        	93.90747       	93.27652       	91.8254        	93.06868       	93.580826      	94.785614      	92.4755        	93.377754      	94.825645      	93.57153       	94.06093       	94.43932       	
93.196304      	93.563545      	93.64918       	93.52196       	93.10685       	92.3168        	94.24108       	92.79928       	92.75663       	93.36414       	92.409874      	92.44073       	92.943794      	92.22693       	93.18654       	93.276726      	92.716324      	93.19555       	93.41606       	91.63681       	92.400764      	92.73378       	91.97861       	92.15389       	92.441154      	92.00017       	92.57814       	92.086334      	91.780594      	91.89975       	91.90272       	91.528336      	92.08162       	92.667816      	92.26018       	92.16318       	92.45531       	91.96147       	91.623344      	92.10456       	91.79664       	92.32605       	92.2848        	92.04117       	92.23193       	91.428276      	88.92138       	89.583466      	92.08881       	92.246864      	92.618805      	92.803955      	91.72061       	92.812485      	93.91474       	93.56757       	93.68759       	92.66039       	93.437294      	91.90707       	91.94268       	93.33484       	93.65099       	93.25545       	93.45988       	93.338936      	92.82878       	92.586105      	92.83105       	92.79223       	93.50221       	93.32039       	93.473564      	92.712555      	93.05594       	92.32421       	92.75151       	93.1635        	92.89259       	93.21105       	92.224365      	92.20338       	92.16349       	91.957535      	92.40719       	92.59532       	92.48644       	92.876724      	92.43857       	92.47034       	92.29248       	92.2705        	92.063675      	92.78593       	92.80716       	92.86821       	93.40672       	92.96797       	92.43168       	92.77217       	
93.26213       	93.3448        	93.77971       	93.78145       	92.95601       	92.57818       	93.31072       	92.46805       	92.88171       	93.47111       	92.75072       	93.00537       	92.56625       	92.08261       	92.57063       	91.81825       	92.38176       	92.78129       	93.01846       	92.520294      	93.39688       	92.92394       	93.239296      	94.05754       	93.409294      	93.814575      	94.57403       	93.54591       	93.55794       	93.520355      	92.591095      	92.38957       	92.77319       	92.55272       	92.70248       	93.16637       	92.413605      	92.44938       	92.32886       	92.341385      	92.6069        	92.645744      	92.64765       	93.60383       	92.83961       	92.05435       	93.01301       	92.45673       	91.99395       	92.38574       	92.45889       	91.91855       	90.43757       	89.935555      	93.57674       	93.89503       	93.220406      	93.23261       	93.46688       	90.068085      	90.607956      	92.87267       	92.69022       	94.1432        	93.96404       	93.4814        	93.759         	93.10099       	92.677284      	93.56351       	93.441         	93.05114       	93.898285      	93.25945       	92.93464       	93.71396       	93.12831       	93.241455      	93.70255       	93.0722        	92.72245       	92.97421       	91.83752       	92.0338        	92.762505      	92.47604       	92.8154        	93.18965       	91.675575      	92.36535       	92.96782       	92.30189       	93.19661       	93.18797       	92.18442       	92.54522       	92.86647       	92.502815      	92.881294      	92.96025       	
89.4121        	89.0818        	89.61525       	92.1736        	93.99149       	93.04603       	92.524445      	93.308945      	92.5028        	92.73426       	93.185074      	92.420334      	92.525276      	91.26905       	92.32858       	92.722374      	92.96077       	92.89011       	92.84398       	92.666016      	92.22297       	92.233925      	92.28264       	91.41833       	92.08842       	93.20951       	92.22794       	91.8068        	91.55634       	91.33446       	92.10939       	92.13139       	92.31596       	91.89613       	92.53329       	92.40573       	92.13262       	91.13575       	91.406136      	91.1845        	91.748604      	91.60478       	91.41374       	91.06004       	91.30563       	91.660324      	91.86966       	91.64363       	91.651566      	91.90042       	91.53748       	91.44987       	90.197464      	89.93039       	92.00432       	92.392525      	92.36796       	93.572914      	92.49369       	91.772385      	90.77299       	92.532295      	92.58824       	92.90958       	92.73783       	92.727646      	92.74449       	93.4394        	92.14799       	92.61808       	93.02116       	92.82692       	93.27255       	92.520256      	91.61158       	92.4226        	91.9249        	92.06395       	92.61764       	92.47747       	92.14474       	92.56259       	92.70593       	91.77397       	93.028564      	92.696526      	92.045746      	93.16173       	92.343636      	92.0855        	93.57255       	92.73702       	92.85231       	92.72921       	92.65795       	92.690025      	92.97269       	92.72569       	92.96639       	92.64293       	
91.54977       	92.12373       	92.41773       	93.843315      	95.22442       	95.59762       	95.83781       	95.53615       	95.64794       	95.155975      	95.25445       	95.10131       	94.92216       	94.98775       	94.464485      	94.59825       	94.26505       	95.312325      	94.85243       	94.031906      	94.807816      	94.40929       	94.237236      	95.23326       	94.12801       	94.08678       	95.14519       	93.949844      	94.167274      	94.405655      	94.02827       	93.68664       	94.62048       	93.93998       	92.81585       	94.374016      	93.616875      	94.006195      	93.97429       	93.473595      	93.85713       	93.35229       	93.309395      	94.02629       	93.084114      	93.28661       	93.43584       	93.33363       	93.60294       	93.33903       	92.953896      	93.83039       	93.500694      	92.910446      	93.22515       	92.88345       	93.68611       	93.68195       	92.66322       	93.33983       	93.24151       	91.55865       	92.96258       	92.66877       	92.19003       	92.516396      	92.80082       	92.39948       	91.097466      	92.1851        	91.53649       	92.83217       	92.87297       	92.48302       	92.835434      	91.61792       	92.431564      	92.87691       	91.6792        	92.398735      	92.70818       	90.53116       	91.85125       	92.786575      	92.45751       	92.77906       	92.42338       	92.242294      	92.690346      	92.15257       	92.57187       	93.80732       	92.556656      	92.693695      	92.95348       	92.266304      	93.01478       	93.232704      	92.431404      	92.92354       	
94.354576      	95.571         	95.51569       	94.45076       	93.75844       	94.19453       	94.02935       	90.9799        	91.99608       	92.96607       	92.570854      	93.27977       	93.035286      	91.55346       	93.206955      	91.87188       	92.030365      	92.721855      	92.14265       	91.218056      	92.951744      	92.24781       	92.43063       	92.85548       	92.17668       	92.50267       	93.1055        	91.77979       	91.80303       	92.80498       	91.731094      	92.55657       	92.983         	92.37748       	93.44188       	92.75682       	91.31629       	92.767426      	92.64592       	91.45011       	92.792656      	92.62468       	92.420425      	93.805855      	92.85942       	92.42419       	92.87621       	91.82547       	92.554855      	93.670135      	92.56542       	92.83881       	92.62331       	92.33353       	93.09705       	92.70727       	92.52193       	93.35228       	92.73563       	92.39604       	93.28681       	92.46092       	91.73439       	92.66618       	92.01493       	91.5545        	92.56303       	92.01852       	92.3065        	92.89449       	92.221         	92.945015      	92.69233       	91.85263       	92.226265      	92.88182       	91.95874       	92.48693       	92.91516       	92.53175       	93.10705       	92.78324       	92.35601       	92.82917       	93.088554      	92.47012       	93.303116      	93.28132       	92.70048       	93.32775       	93.13611       	92.47535       	93.200485      	92.29151       	92.12203       	92.46443       	92.0828        	90.92522       	92.815834      	91.90624       	
93.49498       	93.361206      	93.114395      	93.38219       	93.322105      	93.16788       	93.63343       	94.0348        	94.1585        	94.4949        	94.17769       	94.200806      	94.44168       	94.562256      	93.64992       	93.63874       	94.18675       	93.79935       	94.1212        	94.455444      	94.14796       	93.40494       	93.96758       	91.90152       	92.12362       	94.640015      	94.21475       	94.19364       	94.33276       	94.18061       	94.240425      	94.0481        	94.19367       	94.36236       	94.61373       	94.760086      	93.63764       	93.52583       	93.8942        	93.65172       	93.29892       	93.60852       	93.79202       	92.00435       	93.79004       	93.7986        	94.1056        	93.95138       	93.43192       	94.66279       	94.1495        	94.202545      	93.99263       	93.865364      	93.93938       	93.94413       	93.399994      	93.36922       	93.61949       	93.64405       	94.41634       	94.16776       	93.95051       	93.64408       	93.60306       	92.93033       	93.49228       	93.462944      	93.15638       	93.83806       	93.64299       	93.74808       	92.981125      	93.42692       	93.07148       	93.7987        	93.73713       	93.265335      	93.669304      	93.73277       	93.04407       	93.24214       	92.82995       	92.840805      	93.877365      	93.9506        	93.515274      	93.642685      	93.4347        	93.39054       	93.471306      	93.039314      	92.549774      	92.40158       	93.49079       	93.02865       	93.9554        	93.606606      	93.38459       	94.03217       	
93.18945       	92.977066      	92.26399       	92.08435       	92.66115       	92.63232       	92.15662       	91.73424       	92.44563       	91.87057       	92.84945       	93.15712       	92.783844      	92.61462       	92.34664       	92.0609        	92.3182        	92.39079       	91.82793       	91.923416      	91.510796      	92.8628        	92.99161       	91.46211       	91.041954      	93.309654      	92.52602       	92.81403       	93.09816       	91.84587       	92.036095      	92.65468       	90.99848       	89.75363       	91.82419       	91.78763       	92.61131       	91.81385       	90.98729       	92.17387       	91.58326       	91.07296       	92.14583       	90.9803        	91.78126       	92.71297       	92.031006      	92.08944       	92.73185       	91.28431       	92.17946       	92.86424       	92.4705        	93.18295       	93.516266      	93.23764       	93.93361       	93.151405      	92.82943       	93.61034       	93.20854       	94.22607       	94.59284       	93.40788       	93.35035       	94.01334       	93.18689       	93.86694       	94.14128       	91.745834      	91.897575      	94.26061       	93.12675       	93.83524       	94.12          	94.025604      	94.55205       	93.79953       	93.7184        	94.4499        	93.80657       	93.8493        	93.91102       	94.090485      	93.83106       	94.28327       	92.99093       	93.24883       	94.15789       	93.39174       	94.26789       	94.19809       	94.338264      	93.59659       	94.32854       	93.95553       	93.51685       	94.38325       	92.9593        	93.98994       	
94.064926      	94.45454       	93.53629       	92.849365      	92.43815       	93.124435      	93.789474      	93.41136       	94.53022       	93.80041       	93.06344       	94.20692       	93.857124      	93.238754      	94.02312       	92.72172       	93.26001       	93.589714      	93.317535      	92.89693       	91.25003       	93.10316       	95.04549       	95.149         	93.88126       	94.643295      	95.12866       	94.064606      	93.887314      	94.28141       	94.0319        	94.79452       	94.00369       	91.75166       	93.06555       	95.041435      	95.039185      	94.20202       	94.56459       	93.756294      	94.93071       	94.68222       	93.93859       	94.68767       	94.88736       	95.416336      	95.41406       	94.68178       	94.509796      	94.83342       	94.46612       	95.201935      	94.89376       	95.27046       	94.49804       	95.71009       	95.09224       	94.85425       	95.33365       	94.837975      	94.85316       	95.05611       	94.37892       	94.97458       	93.71541       	94.71764       	95.14526       	95.51766       	95.04327       	95.04633       	94.87574       	94.90674       	95.22517       	94.90724       	94.31218       	93.948715      	95.213326      	95.15907       	95.73056       	95.22686       	95.24463       	95.2439        	94.493965      	94.60658       	95.217514      	93.92984       	94.30016       	94.68025       	94.19425       	94.69446       	93.92261       	93.69062       	94.25908       	94.41814       	94.15913       	93.97082       	93.98148       	92.894615      	93.65632       	93.05786       	
92.87145       	93.20568       	92.761215      	92.36484       	92.71264       	93.73229       	92.844604      	92.789345      	92.97884       	92.85678       	92.38547       	92.697464      	91.69217       	89.75479       	89.89275       	90.93453       	92.21217       	92.64532       	92.86923       	91.963394      	92.481255      	92.17663       	92.073524      	92.84334       	91.47344       	92.20102       	92.82158       	92.59329       	92.88223       	92.93588       	92.51366       	92.80356       	93.69222       	93.087715      	93.32552       	93.21028       	92.16287       	92.58782       	92.71003       	92.32381       	92.497696      	91.458855      	91.72045       	92.61884       	92.03366       	91.24892       	92.19577       	92.597824      	92.018394      	92.960655      	92.72104       	93.06914       	93.26147       	92.84163       	93.04716       	93.47148       	93.05617       	92.6945        	91.40995       	93.12749       	93.39483       	93.6268        	92.675385      	92.22102       	92.92156       	91.7826        	92.43693       	92.663574      	92.31904       	92.34986       	92.5442        	92.27156       	92.60295       	93.049164      	92.83          	93.05753       	92.83296       	92.46463       	93.23657       	93.506226      	92.74891       	93.518105      	93.70695       	92.279465      	92.26525       	93.83871       	92.73026       	93.1973        	93.04855       	93.19388       	93.66286       	93.95531       	92.73872       	93.59412       	93.51038       	93.05684       	93.53333       	93.33715       	93.16422       	93.568         	
92.41301       	92.09223       	91.840485      	91.86632       	92.39021       	92.49098       	91.54493       	91.98039       	91.967804      	92.23047       	91.805435      	92.26413       	90.60133       	88.44368       	88.65186       	90.02559       	92.413284      	91.95715       	91.569534      	91.32319       	91.7474        	90.75986       	91.309044      	91.17138       	91.83707       	91.27856       	91.55036       	91.49606       	91.696884      	91.30059       	91.29857       	90.58666       	90.928314      	91.53967       	91.21322       	91.53349       	91.42712       	90.78072       	91.756744      	89.70914       	91.28549       	91.409256      	91.38801       	91.31612       	91.281265      	91.21912       	89.930176      	92.24251       	91.525345      	91.505035      	91.40915       	90.863266      	91.38415       	91.4074        	90.92135       	90.76355       	91.64246       	91.136185      	92.26356       	92.02074       	91.43507       	91.67109       	92.12044       	90.67354       	91.57152       	91.21166       	90.524765      	91.423355      	91.331985      	90.91116       	91.20666       	91.59795       	90.90287       	91.64462       	91.69704       	91.50577       	91.94206       	90.936615      	91.37558       	91.46129       	91.4713        	91.96081       	92.24046       	91.912636      	91.65439       	92.240654      	91.34095       	92.33913       	92.06406       	91.827286      	91.03235       	91.26885       	92.43753       	92.99736       	92.90346       	92.32942       	92.2494        	92.21611       	92.309364      	92.46703       	
95.20703       	94.37336       	94.502304      	95.36943       	95.913826      	95.27473       	95.018234      	95.01848       	94.80067       	94.49777       	94.73371       	94.54391       	95.08756       	93.09209       	92.060905      	93.745186      	93.84957       	92.9871        	93.47606       	93.13947       	92.972664      	93.63048       	93.54811       	93.80246       	93.96663       	93.46556       	94.3486        	94.54118       	93.3201        	93.33631       	93.880165      	93.38698       	94.18201       	93.90959       	92.97283       	94.24736       	94.47614       	93.74783       	94.14547       	93.82516       	93.09937       	94.091415      	93.760895      	93.825         	94.233345      	94.16341       	93.70183       	93.87776       	93.45178       	92.8632        	93.2196        	92.801605      	92.87585       	93.13558       	92.694786      	92.76144       	93.22238       	93.12158       	92.74831       	93.676605      	93.26796       	93.070526      	93.53553       	93.12261       	92.97624       	93.243195      	92.7509        	92.871864      	93.00309       	92.33166       	92.67626       	93.06249       	92.83992       	92.688805      	92.82804       	91.50678       	92.96148       	93.00578       	93.3018        	92.53934       	92.63559       	92.708206      	92.71497       	93.16214       	92.91016       	93.60307       	93.18721       	93.09342       	92.68164       	91.686066      	89.25066       	88.921135      	90.96135       	92.75703       	92.84228       	92.87553       	92.31751       	92.888794      	93.291595      	92.56923       	
93.255875      	93.17696       	92.15624       	91.701904      	92.5769        	92.89552       	92.808105      	92.85754       	93.66301       	92.32293       	92.83598       	92.84908       	92.64253       	93.12981       	93.16641       	92.860115      	92.96388       	93.37186       	92.44151       	92.50318       	93.10127       	92.45433       	92.24771       	93.548134      	93.36923       	93.36564       	91.833855      	92.66649       	93.639694      	93.58208       	93.757034      	94.27077       	93.767654      	93.7572        	94.51228       	94.018845      	94.27727       	93.69926       	93.19093       	92.83838       	93.98906       	94.04908       	93.878         	94.81894       	94.137535      	94.601265      	94.487236      	93.32104       	93.77723       	93.91785       	93.938065      	94.03395       	93.55112       	93.51807       	93.48945       	93.56387       	92.94986       	93.280594      	94.09962       	93.67067       	93.5664        	93.205696      	93.56751       	93.49234       	93.93316       	93.431915      	94.38814       	93.82608       	93.04093       	94.097084      	93.89615       	93.60871       	94.4426        	94.18616       	93.54679       	94.150475      	93.76029       	93.74336       	94.24716       	92.1821        	90.93994       	93.47228       	93.193985      	93.61243       	93.741264      	93.51633       	92.94411       	92.82606       	92.77075       	91.826         	90.03805       	89.17769       	90.67705       	93.444786      	92.849686      	93.657074      	93.030396      	93.13631       	93.82697       	93.47191       	
93.7859        	92.838974      	92.226944      	92.7671        	93.32296       	93.00522       	92.46186       	92.30106       	92.60985       	91.87357       	93.00025       	92.32442       	92.33109       	93.23581       	92.27082       	92.789955      	94.04167       	92.62696       	93.00655       	93.20794       	92.43686       	93.05073       	93.267006      	93.34131       	93.607574      	92.57452       	92.58884       	93.36386       	92.834946      	92.6581        	91.33271       	89.75785       	91.98458       	93.48002       	92.13477       	93.102776      	93.28294       	92.35316       	92.41175       	93.479416      	92.72592       	92.95265       	93.15445       	92.75107       	92.84794       	92.77575       	92.284065      	92.3971        	92.01649       	92.26307       	93.28111       	92.189224      	91.97157       	92.133255      	90.431076      	93.07499       	93.434296      	92.7824        	92.372925      	93.00125       	92.79503       	93.78879       	93.26078       	92.55119       	93.74568       	93.62188       	93.105675      	93.56691       	92.68141       	92.69125       	92.93617       	90.955315      	89.56462       	91.32922       	93.125206      	93.40823       	93.53358       	92.963905      	93.27384       	94.12857       	92.678314      	93.552734      	93.44601       	93.19556       	93.51614       	93.27616       	93.00727       	92.633286      	92.982254      	92.69892       	92.71428       	92.368324      	92.55911       	94.53406       	94.25046       	93.162544      	93.21027       	92.744804      	93.11031       	93.58198       	
93.89661       	93.308365      	92.35904       	92.16743       	92.71997       	93.11476       	92.28166       	92.364716      	93.41378       	92.23299       	91.86221       	91.2187        	91.6663        	91.71905       	92.48135       	91.42794       	92.027756      	92.11947       	91.58531       	91.96547       	91.634026      	91.3055        	91.789055      	91.79906       	90.63576       	91.53221       	91.70787       	91.513794      	92.36459       	92.03846       	91.13708       	89.83693       	91.98796       	92.75239       	92.96273       	91.606735      	92.28105       	92.49687       	92.28923       	92.35096       	92.88697       	91.89122       	91.644325      	91.92232       	91.39975       	92.52199       	92.49858       	91.98819       	92.61498       	92.421425      	91.458115      	92.64241       	92.66866       	91.728546      	90.40794       	91.721405      	92.58663       	92.94857       	93.47845       	91.681114      	91.93818       	92.814804      	92.72984       	92.73902       	91.86316       	92.00956       	92.83678       	92.270004      	91.9203        	92.74562       	92.53195       	91.92863       	89.679855      	90.44304       	92.332016      	93.49873       	92.859985      	92.92102       	93.634995      	93.08177       	93.71608       	93.81798       	93.595184      	93.700264      	93.785614      	93.90651       	93.72429       	93.848305      	93.16329       	93.2867        	93.2813        	93.83995       	93.638115      	93.916985      	93.584465      	93.58348       	93.78914       	93.4203        	94.79627       	94.622314      	
92.999626      	93.00501       	92.80219       	92.71566       	92.7804        	92.64324       	92.44279       	91.79688       	91.53182       	91.55957       	91.24116       	92.18825       	92.32425       	91.35763       	92.21364       	91.89033       	91.961586      	91.073326      	89.56015       	90.89491       	92.379395      	91.96815       	91.87997       	91.77086       	91.85433       	92.17375       	92.88201       	92.71648       	92.65651       	92.48804       	92.470795      	91.96866       	91.93565       	92.080734      	91.87301       	92.08161       	91.74186       	91.970024      	92.5207        	90.91146       	90.9661        	92.20976       	91.37279       	91.586876      	91.6971        	90.5634        	92.02681       	91.94657       	91.866905      	92.17721       	92.63281       	91.858475      	92.52539       	92.656975      	92.15186       	92.99531       	92.64607       	92.42016       	92.9981        	92.90125       	91.28242       	93.04048       	92.398476      	91.93996       	92.43586       	91.80881       	92.0362        	93.387436      	93.35457       	92.97799       	93.70839       	92.9871        	92.39194       	93.72276       	92.763596      	92.57744       	92.829796      	92.23844       	92.36182       	93.146645      	93.09351       	92.44622       	93.54863       	92.577995      	92.84191       	93.0316        	92.719025      	93.1667        	93.12667       	92.72513       	92.53707       	92.89783       	93.02653       	93.30424       	92.89456       	92.702515      	92.88867       	92.59192       	92.98036       	93.54428       	
92.74296       	92.95589       	93.12031       	93.07155       	92.92502       	93.260056      	93.52115       	93.2375        	93.2647        	92.93214       	91.73958       	92.76745       	92.66031       	92.84753       	93.25904       	93.206314      	93.53869       	91.44866       	89.86369       	90.432076      	91.53736       	92.54434       	92.169426      	92.20798       	91.70839       	92.18489       	91.760666      	91.72525       	92.422714      	92.49482       	92.37314       	92.51013       	92.43636       	92.0839        	93.21508       	92.891075      	92.40965       	93.229095      	92.68303       	92.40697       	92.4727        	92.387245      	91.59699       	92.34447       	91.635704      	91.568954      	92.121254      	91.556595      	91.6582        	89.78297       	89.866005      	92.33402       	92.04326       	92.68771       	92.37575       	92.1833        	92.40628       	92.605865      	92.43912       	92.64998       	92.86811       	92.77173       	92.54892       	92.61386       	92.555466      	92.57317       	92.59588       	92.65747       	92.81218       	92.55949       	92.60822       	92.591484      	92.43774       	92.79565       	92.57927       	92.832634      	92.93042       	92.27764       	92.6306        	92.27233       	92.723755      	92.31418       	92.66452       	92.50209       	92.18053       	92.11656       	92.316414      	93.23107       	92.30272       	93.413124      	92.91215       	92.32638       	91.33203       	93.13935       	92.68189       	92.863205      	92.79573       	92.54911       	93.23893       	92.98742       	
94.60674       	94.47529       	93.91977       	93.246704      	93.939316      	93.895454      	93.02877       	92.67577       	93.12132       	92.41451       	92.252846      	92.13049       	91.149826      	91.78817       	92.438805      	91.565254      	92.10084       	92.023766      	90.28736       	88.981514      	90.58228       	92.43132       	93.23161       	92.47867       	92.200645      	92.88386       	92.66902       	92.8136        	92.5129        	92.40612       	92.34117       	92.97298       	92.3689        	92.15506       	93.15474       	90.55412       	87.827065      	90.50137       	92.767525      	93.07476       	93.33442       	92.86935       	93.004524      	93.110176      	92.45436       	90.872635      	93.59962       	93.0328        	92.92713       	92.69969       	91.419556      	92.97108       	93.045845      	92.73109       	92.79558       	92.50676       	92.102455      	92.31943       	92.518814      	92.04358       	92.30516       	92.0791        	92.25322       	92.22949       	91.84836       	92.697075      	92.30924       	92.51547       	93.12224       	92.53796       	92.29464       	90.92176       	90.09614       	92.12031       	92.6191        	91.97888       	91.9113        	92.172485      	91.72597       	91.964264      	91.90067       	91.96855       	92.00445       	91.792915      	92.08386       	92.424324      	92.18934       	92.279495      	93.047775      	92.48074       	92.41813       	92.62154       	91.57469       	92.21324       	91.815865      	92.09907       	91.52462       	91.75882       	92.760124      	92.68147       	
93.33749       	93.37776       	92.97338       	93.32523       	93.50949       	93.079636      	93.42929       	93.53914       	93.72945       	93.79871       	94.212456      	94.16145       	93.83326       	93.68165       	93.93974       	94.81356       	94.1683        	93.39393       	93.58725       	92.37645       	93.6457        	93.78517       	94.597275      	93.47271       	93.29332       	92.91251       	92.59349       	93.09908       	93.37055       	92.81113       	93.281204      	93.539276      	92.68989       	93.24825       	93.455246      	92.079765      	88.513306      	91.20136       	93.90726       	93.26367       	93.44225       	93.390854      	93.9307        	93.587906      	93.16224       	93.743935      	92.350815      	93.75098       	93.54272       	92.60533       	93.40809       	93.43652       	92.98445       	93.38886       	92.80525       	93.22248       	93.76332       	93.317955      	93.45076       	93.632286      	93.04947       	94.05827       	93.697014      	94.388374      	93.4482        	92.25741       	92.318954      	94.33134       	94.19609       	93.55278       	93.873276      	93.42411       	92.67569       	93.02373       	93.61421       	93.83617       	93.58765       	93.53991       	93.52201       	93.446976      	93.75382       	93.362465      	93.58363       	93.23955       	93.23958       	92.61091       	93.00867       	92.96657       	92.34527       	92.80264       	92.35763       	92.220215      	92.89476       	92.31079       	92.3128        	92.63355       	91.897705      	92.0634        	92.52837       	92.84734       	
92.97486       	92.736115      	92.79726       	92.928986      	93.37275       	93.185844      	92.75533       	92.90323       	93.160904      	92.02379       	92.58863       	92.22204       	92.62688       	92.14108       	92.03291       	93.601166      	92.97949       	92.94918       	92.93962       	93.138954      	93.68183       	92.85644       	93.445015      	93.56205       	93.088066      	92.875786      	93.09277       	92.25572       	92.79447       	93.22867       	92.89803       	93.31098       	93.314285      	92.99169       	93.838066      	93.654305      	92.98511       	94.00465       	93.48738       	92.93469       	93.75739       	92.9253        	92.21434       	93.018295      	93.167114      	93.35082       	93.263145      	93.514435      	93.298294      	92.782646      	91.248726      	92.391884      	92.86783       	91.96215       	92.447136      	92.798546      	92.70272       	93.57844       	93.63771       	92.86577       	92.78922       	92.89699       	92.597046      	92.42541       	90.57588       	88.893906      	89.939995      	92.815056      	93.05191       	92.45911       	92.83586       	92.20955       	93.088936      	92.4653        	92.07606       	93.26628       	92.59987       	92.64715       	92.93572       	92.24527       	92.72558       	93.13285       	93.030556      	92.762436      	92.60812       	92.35216       	93.36649       	93.67791       	93.48751       	93.36543       	92.63243       	92.634766      	93.13277       	92.695175      	92.507126      	93.1353        	92.1405        	92.03059       	92.176254      	92.940544      	
93.39289       	93.64095       	92.95949       	92.8604        	92.79031       	92.52878       	92.4923        	92.61202       	93.227165      	93.06902       	93.086945      	92.93807       	92.84498       	92.95706       	93.26114       	93.648735      	93.01374       	93.31121       	93.66047       	92.76287       	92.50342       	93.38314       	92.747475      	92.86874       	93.288055      	93.14799       	92.38461       	92.869194      	92.17904       	92.57421       	92.75467       	92.960884      	92.99179       	93.14066       	92.83899       	92.95094       	93.21704       	92.778366      	93.33792       	92.61475       	92.907845      	92.905685      	92.860275      	92.57267       	91.11362       	92.718666      	93.70257       	93.370255      	93.670395      	92.999504      	93.20804       	93.21803       	92.8892        	93.365616      	93.67077       	92.377556      	91.06249       	92.35047       	93.09648       	93.39697       	93.76039       	92.96098       	93.371895      	94.59574       	91.99592       	90.309685      	90.90655       	92.3368        	93.40304       	93.63197       	93.82177       	93.840195      	94.47192       	93.577774      	93.767296      	93.18104       	93.24606       	93.0124        	93.93409       	92.88565       	93.13248       	93.63834       	93.44345       	93.971664      	93.56893       	93.26927       	93.246124      	92.06424       	91.97192       	94.2841        	93.620636      	93.557785      	94.15812       	93.73907       	93.58761       	93.63197       	94.011925      	93.11867       	93.64564       	93.49535       	
92.47954       	93.00357       	92.86378       	92.412766      	92.797325      	92.87666       	92.806694      	92.60221       	91.67082       	91.8603        	91.90776       	92.59825       	92.451225      	92.097725      	92.80115       	92.284966      	92.51525       	93.10279       	92.83373       	92.91451       	92.95806       	92.460236      	92.78692       	93.263725      	92.612755      	93.08086       	93.00969       	93.07201       	93.358154      	93.80352       	92.75846       	92.03718       	94.03215       	93.68977       	94.22596       	93.32387       	92.90793       	94.009895      	93.7373        	93.96059       	93.94685       	94.0839        	93.973335      	93.56505       	93.3313        	93.57516       	94.233955      	93.88513       	94.04798       	94.12458       	93.02265       	93.56076       	92.868744      	93.4934        	94.336266      	94.59916       	94.026245      	94.613434      	95.27576       	94.281235      	94.38963       	95.268326      	94.66169       	95.97951       	95.22999       	94.123         	94.44461       	94.55217       	94.568886      	95.411446      	94.608315      	94.68282       	95.27181       	94.18888       	94.97726       	94.978546      	94.372475      	95.225174      	95.45601       	95.389496      	94.49456       	92.530075      	94.40715       	95.13066       	94.61098       	94.942184      	93.54196       	91.21725       	90.997925      	93.77144       	95.45255       	95.6093        	95.513435      	94.0371        	91.43183       	93.41552       	93.92115       	94.18366       	94.55042       	93.68694       	
92.822395      	92.99443       	92.77225       	92.77829       	92.44079       	92.21614       	92.35515       	92.621254      	92.33044       	92.22108       	92.89143       	92.17962       	92.28149       	92.19355       	91.82919       	92.084175      	91.65965       	92.20715       	92.573906      	92.63555       	92.36925       	91.999176      	92.2398        	92.525894      	90.43574       	90.592155      	92.12222       	92.19652       	92.27843       	92.60936       	93.04477       	90.59073       	91.26095       	93.39592       	93.1333        	92.4456        	92.47513       	93.12643       	92.46219       	92.53106       	92.47421       	92.51275       	92.11951       	92.62426       	92.52942       	92.4606        	92.491135      	92.93291       	93.06619       	92.68117       	93.52005       	93.36751       	93.09572       	92.97006       	92.69322       	93.25891       	93.21579       	92.313126      	92.273315      	93.22236       	93.178345      	93.12782       	92.69591       	93.579315      	93.52636       	93.914024      	93.86022       	93.62497       	93.45723       	93.068634      	93.474205      	92.92851       	92.505974      	93.28801       	93.03304       	93.35405       	93.814095      	92.98251       	94.0714        	94.22444       	93.003136      	92.84421       	92.94966       	93.46982       	94.13492       	94.4289        	92.4622        	90.33548       	90.00526       	91.9702        	94.13481       	93.512054      	93.53881       	93.23885       	91.024956      	92.025826      	93.04621       	93.413536      	93.42687       	93.73375       	
93.61617       	93.08935       	92.941025      	92.53944       	92.97944       	92.87947       	92.49317       	92.68478       	92.4345        	92.584465      	92.92628       	92.67236       	91.712166      	91.913895      	91.4604        	91.36674       	91.467545      	91.32038       	90.76616       	91.93555       	92.48376       	91.83196       	93.243576      	92.575516      	92.03669       	92.646904      	91.97765       	91.644585      	92.088905      	91.91272       	91.70387       	92.71603       	92.70969       	92.547226      	92.44139       	91.57817       	91.52907       	92.684135      	91.61621       	92.713585      	90.57442       	91.46805       	92.47171       	92.284904      	91.51512       	92.303764      	91.81091       	91.38194       	92.19905       	91.33163       	91.84826       	91.20659       	90.99426       	91.71323       	92.103096      	91.60575       	92.37448       	91.897675      	92.02294       	92.047226      	91.935585      	92.25917       	92.13243       	91.62988       	91.339966      	91.9217        	91.30599       	92.11115       	91.69243       	91.70828       	92.06981       	92.01411       	91.85027       	92.13928       	92.15862       	91.361115      	91.60238       	91.37391       	90.93604       	91.82878       	90.98621       	90.909134      	91.52232       	90.83986       	91.68999       	92.253586      	91.58287       	90.20325       	89.872795      	90.819214      	92.310394      	91.94336       	90.88517       	92.104546      	91.77874       	91.36661       	92.35339       	91.21668       	90.61876       	92.55232       	
93.10795       	93.33911       	93.479195      	91.93103       	91.05057       	92.48133       	92.51539       	92.50248       	92.229805      	92.00113       	92.15153       	92.474365      	93.006645      	92.57372       	92.448715      	92.09745       	92.019516      	91.70721       	91.88378       	91.87731       	91.24194       	91.81417       	91.592865      	91.73194       	92.193886      	90.98552       	91.96612       	91.70888       	91.70368       	92.46764       	92.12257       	92.29422       	92.04988       	91.39668       	91.27375       	91.87007       	91.543         	91.4187        	90.91087       	91.090706      	90.430626      	91.02542       	91.30822       	90.90801       	89.948906      	91.30933       	91.590416      	91.193         	91.38736       	90.7825        	90.82144       	90.81791       	90.50233       	92.02199       	91.920135      	91.12297       	91.62509       	91.35063       	91.758415      	91.97606       	91.927055      	91.280136      	91.6909        	91.28324       	91.29936       	91.43243       	90.866425      	91.440216      	91.2662        	91.3112        	91.44819       	91.7534        	91.907         	92.17191       	92.34232       	91.90498       	91.1883        	91.713486      	92.11376       	91.92223       	92.752045      	92.05607       	92.6516        	92.793945      	92.49081       	92.86903       	92.83158       	91.53559       	92.8795        	92.42459       	92.16148       	92.5151        	92.42109       	91.92839       	92.73141       	92.67531       	92.01059       	92.26326       	91.92186       	91.71069       	
94.232475      	93.8521        	93.44835       	93.348114      	93.71308       	93.39747       	92.774536      	93.15781       	93.145096      	92.76629       	93.04305       	92.88762       	92.50178       	93.0288        	93.10489       	92.288376      	93.07774       	92.28751       	92.35186       	93.05387       	93.04171       	92.18886       	92.1424        	92.36718       	92.110016      	92.59216       	92.24954       	92.67614       	92.59521       	90.607086      	91.454834      	93.060196      	92.791145      	92.1163        	92.655014      	92.95765       	92.49161       	92.59471       	92.22693       	92.826744      	91.76643       	92.62975       	92.352905      	92.22702       	92.61142       	92.32593       	92.49076       	92.52068       	92.21677       	92.466484      	93.01062       	93.11937       	92.76672       	92.353584      	92.19927       	92.264336      	92.801704      	91.9952        	92.00438       	91.88121       	92.140144      	92.87902       	93.34029       	92.5098        	92.99228       	92.714355      	92.68163       	92.46965       	93.31156       	92.88903       	92.56498       	92.33836       	91.98129       	92.55809       	92.85987       	92.301094      	92.29865       	92.01183       	91.76146       	92.9857        	92.83244       	92.17198       	93.62188       	92.9049        	93.260216      	93.64149       	93.04537       	92.58318       	93.05012       	92.51938       	92.90856       	93.851395      	93.50965       	93.21196       	93.29939       	92.56705       	92.01399       	92.630455      	92.40148       	92.88476       	
93.06751       	93.01798       	92.439766      	91.95051       	92.511894      	92.75943       	92.11438       	91.76793       	92.307236      	91.87931       	91.61346       	92.76317       	92.22014       	92.50975       	92.01203       	92.79001       	93.015594      	92.81343       	92.360504      	92.91847       	92.40988       	91.87822       	91.40079       	91.17464       	91.4342        	91.701775      	92.73026       	92.1726        	92.28467       	89.90585       	88.45236       	92.02641       	93.09865       	92.97347       	93.187614      	92.89392       	92.14758       	93.45025       	93.044624      	93.23329       	93.80363       	92.66931       	92.76168       	92.951126      	92.464516      	92.29066       	93.56409       	92.89254       	93.05155       	93.47405       	92.72501       	93.537445      	92.49686       	93.13346       	94.000885      	92.8717        	92.88834       	94.2412        	93.83173       	93.45702       	93.233154      	92.81235       	93.49557       	93.35713       	92.9801        	93.752495      	93.381096      	91.40292       	92.85817       	93.23649       	93.05432       	94.242096      	93.86607       	93.25688       	94.18581       	93.34623       	93.27858       	93.70814       	93.727745      	93.80987       	94.47749       	93.86152       	93.45181       	93.39905       	92.20615       	94.18974       	94.31298       	93.75438       	93.71148       	94.05261       	93.85633       	93.91652       	94.549515      	94.18991       	94.67725       	94.122185      	93.937675      	94.99698       	94.104546      	93.212036      	
94.19218       	94.36323       	94.43412       	94.04698       	93.914116      	94.77506       	95.304695      	94.21468       	94.53894       	94.02574       	93.164604      	93.490425      	93.728065      	92.623085      	93.80978       	93.30431       	92.14452       	93.60226       	92.584145      	92.26399       	92.70112       	92.33418       	92.35087       	93.72362       	93.2321        	92.90065       	94.34106       	93.53156       	93.86712       	92.359726      	90.79435       	93.61085       	93.68799       	93.30756       	94.05388       	93.293526      	92.92936       	93.24857       	93.27513       	91.494576      	93.17441       	92.57479       	92.481094      	93.21605       	92.683105      	93.06893       	92.91793       	92.66634       	92.20824       	93.34811       	92.144485      	93.14754       	92.98003       	92.39087       	92.31018       	92.90937       	92.01663       	92.399124      	92.87094       	92.05842       	92.04833       	92.273285      	91.603424      	92.80944       	92.03214       	91.816696      	92.783806      	92.46215       	92.15648       	92.743034      	90.329384      	89.94146       	92.81373       	92.38597       	93.15585       	92.89697       	92.42838       	92.145294      	93.14228       	92.41495       	92.72812       	93.23035       	92.77967       	92.95649       	91.97119       	92.572266      	92.89523       	92.53186       	92.45565       	92.67309       	93.00886       	92.62581       	92.9359        	93.03109       	92.83895       	93.647896      	93.51819       	93.853676      	93.554794      	93.81143       	
91.7149        	91.59284       	92.24959       	92.79506       	92.31616       	92.04703       	92.28917       	92.11075       	92.492485      	92.37642       	92.906204      	92.32675       	92.683014      	92.359634      	91.879486      	92.26025       	92.09083       	91.91646       	92.2315        	92.49997       	92.68388       	92.39181       	92.274254      	92.386856      	92.458916      	92.664764      	92.197914      	92.73967       	92.54052       	92.73848       	92.3663        	92.795044      	91.24724       	92.43808       	92.815704      	92.6665        	93.34083       	92.68945       	93.057686      	93.37267       	93.12557       	92.10519       	93.13005       	91.90422       	92.38294       	92.63901       	91.8127        	92.80915       	93.05155       	92.71713       	92.068184      	90.671906      	91.13173       	93.04094       	92.64323       	92.76095       	93.81031       	93.04826       	93.19156       	93.39616       	93.17107       	93.20387       	93.540215      	92.96477       	93.38067       	93.41442       	92.76417       	92.90768       	92.9108        	93.05069       	91.71214       	90.4329        	92.134026      	93.147896      	93.238396      	93.16066       	93.50671       	92.928314      	93.00975       	93.28146       	92.67473       	92.18996       	92.78122       	92.57262       	92.47937       	93.2878        	92.59737       	92.03577       	92.7425        	92.71359       	92.6441        	93.36647       	92.83093       	92.66267       	93.013306      	92.58358       	92.74313       	92.90646       	92.19282       	92.247765      	
92.10196       	91.85145       	91.63488       	91.95695       	92.05868       	91.94702       	91.442375      	92.257904      	92.57176       	92.2553        	92.591095      	92.443565      	92.81462       	91.9117        	92.22965       	92.88654       	92.86091       	92.61296       	92.832695      	93.22923       	92.434586      	92.40013       	92.45473       	92.77821       	93.23438       	93.01741       	93.21657       	93.47055       	92.72021       	92.7907        	93.538055      	92.8276        	91.075455      	92.88591       	91.92619       	92.52335       	93.25782       	92.62821       	93.156525      	92.714874      	92.58228       	93.96905       	93.891266      	93.33034       	94.10181       	94.36109       	93.52656       	93.34737       	93.97804       	93.00648       	91.20195       	90.83711       	90.998215      	94.43232       	94.989265      	94.736275      	94.721924      	93.530075      	91.57897       	94.224556      	94.296906      	94.68896       	94.278114      	93.61616       	94.113266      	93.00107       	93.44538       	93.807755      	93.38846       	93.95694       	93.56696       	94.344955      	94.18602       	95.274086      	94.99153       	94.57113       	95.5324        	94.08851       	93.492         	96.044266      	95.35239       	94.78889       	95.51004       	94.905754      	95.49085       	95.79094       	95.03268       	94.58868       	94.8376        	94.5094        	94.65742       	95.40567       	94.62102       	95.01401       	94.58804       	94.61806       	95.11014       	94.399574      	94.64532       	95.20679       	
93.12786       	92.02502       	92.52851       	93.92229       	94.12125       	93.303314      	93.2659        	93.319595      	92.250694      	93.14193       	92.682724      	91.20183       	92.28484       	92.31142       	92.13014       	92.57176       	91.78783       	91.271736      	91.54598       	92.40443       	92.112915      	92.9804        	92.488754      	92.6104        	92.50555       	92.1939        	91.19636       	92.27318       	91.914024      	92.26823       	91.36989       	90.26156       	92.52269       	92.45871       	92.250275      	92.66149       	92.3044        	92.1151        	92.58582       	92.66924       	91.721504      	93.28987       	93.06512       	92.316536      	92.31572       	92.70291       	92.19556       	92.701035      	92.01552       	91.587875      	88.82426       	87.20642       	88.64287       	92.169586      	92.92541       	92.67873       	93.3366        	93.08179       	92.97151       	93.90072       	93.577324      	92.69247       	92.1956        	92.482895      	93.83574       	93.43206       	92.54289       	93.608         	92.771675      	93.067924      	93.11117       	92.94942       	92.692276      	93.66679       	93.209015      	92.81821       	94.3284        	93.50579       	93.50017       	93.24633       	92.97375       	92.9185        	93.075035      	92.488045      	93.034996      	93.12027       	91.702774      	92.38223       	93.63304       	93.47865       	93.279976      	93.59217       	92.59288       	92.25925       	92.133575      	91.99463       	92.08888       	91.74393       	91.39609       	92.378105      	
93.165         	92.06898       	92.18908       	92.66119       	92.91859       	92.09167       	92.60806       	93.29273       	92.61418       	92.45409       	93.034256      	93.40739       	92.19856       	93.15777       	92.722176      	93.05466       	92.87202       	92.28446       	93.36015       	93.505806      	92.35241       	93.55174       	93.34823       	92.15604       	93.32176       	93.394325      	92.4713        	92.9364        	92.836784      	92.2195        	92.77275       	91.54394       	92.23662       	92.61215       	91.72701       	92.352455      	93.43059       	92.375984      	92.72551       	93.037994      	92.412224      	93.02214       	92.87219       	91.497505      	92.62135       	92.77056       	92.417564      	93.142136      	92.28124       	91.81674       	90.53022       	88.89452       	89.650276      	91.970215      	92.26318       	91.9388        	92.61634       	92.918755      	92.5463        	93.094086      	93.14281       	92.93236       	93.20761       	92.60481       	92.219765      	93.34863       	92.95032       	92.12267       	92.22425       	92.085205      	92.57063       	91.84191       	92.32861       	92.493744      	93.043816      	92.646736      	92.19997       	92.65593       	92.76967       	93.660355      	92.12519       	92.74309       	92.42378       	92.93205       	93.22518       	92.87692       	93.45541       	92.38356       	92.687836      	92.76327       	92.57761       	92.77546       	93.213         	92.29698       	93.00907       	92.98656       	92.504166      	93.33465       	93.25605       	92.862495      	
92.98958       	92.68404       	92.5352        	92.916336      	93.30713       	92.866714      	92.8588        	93.15556       	92.347694      	92.17296       	92.892         	92.28155       	92.837616      	92.72343       	91.96922       	91.917206      	91.68211       	90.98205       	91.908554      	91.22305       	91.45914       	91.827225      	92.06783       	91.95951       	93.10814       	92.63053       	91.46151       	89.62831       	92.00929       	92.66577       	93.05195       	92.65793       	93.182335      	93.68476       	93.36559       	93.37801       	93.7745        	92.93746       	93.20445       	93.37367       	93.6381        	93.94674       	93.74112       	93.27369       	93.81259       	94.085075      	93.58498       	94.00101       	93.5055        	93.346886      	93.357925      	93.54988       	92.889984      	92.89627       	92.88708       	92.46749       	92.946         	92.682686      	92.451614      	92.95606       	92.32166       	92.54526       	92.74803       	91.98531       	91.818306      	91.57504       	91.97594       	91.727615      	91.47571       	92.0263        	91.834175      	92.17005       	91.79424       	92.03507       	91.962036      	91.784676      	91.67801       	92.33182       	91.73125       	91.9264        	92.5496        	91.6978        	92.112335      	91.53491       	91.73492       	92.02593       	92.02125       	92.31496       	92.59477       	92.17439       	91.66751       	92.214485      	91.8935        	91.33899       	92.36157       	92.178314      	92.82685       	92.62945       	92.00699       	91.751945      	
92.81426       	93.50537       	93.793526      	93.572464      	92.59819       	93.60158       	94.37135       	92.80409       	92.98774       	92.8897        	92.98828       	92.69301       	93.18202       	92.413536      	92.73462       	92.933624      	92.47779       	92.739555      	92.49895       	92.42211       	92.92547       	92.465454      	92.542496      	93.09952       	92.8652        	92.69872       	92.841965      	90.0937        	91.0201        	92.34512       	91.5899        	92.21431       	92.453804      	92.74226       	92.79321       	93.13931       	93.070145      	92.334915      	92.46129       	92.21988       	92.96821       	92.67512       	92.550255      	92.71207       	92.77668       	92.63229       	92.80875       	93.58798       	92.478836      	93.50954       	93.18515       	92.89774       	93.354576      	93.16577       	92.035805      	93.40819       	92.74132       	92.85477       	92.85424       	93.096115      	93.27888       	92.464         	92.207016      	92.773575      	93.22657       	92.76814       	92.88191       	93.09862       	92.6503        	92.92135       	93.46461       	93.37423       	92.99076       	93.09671       	92.79782       	92.990685      	93.62125       	93.08107       	92.854294      	93.768684      	93.76725       	93.13526       	93.665276      	93.92221       	92.96248       	93.46431       	93.28085       	92.62183       	93.4841        	93.14137       	93.67493       	94.58318       	93.46459       	94.00049       	93.97337       	92.864296      	93.66623       	93.17596       	93.07289       	93.01484       	
93.05012       	93.566605      	93.64066       	93.08679       	92.585686      	92.90702       	93.82316       	92.80519       	92.294815      	92.4794        	91.8838        	92.28097       	91.924385      	92.091545      	91.852264      	92.555305      	92.08601       	91.99165       	92.77973       	92.85824       	91.92137       	92.67787       	92.18552       	92.18466       	91.09724       	92.0684        	92.17492       	92.117836      	91.49108       	91.78958       	91.91024       	90.96736       	91.81304       	91.615585      	91.71769       	91.74138       	91.730354      	90.93993       	91.34267       	91.64434       	91.808105      	92.462006      	91.87221       	91.21648       	91.48857       	91.724884      	91.60463       	91.99629       	91.73489       	91.594574      	91.69934       	91.853325      	91.5705        	92.538864      	92.17461       	91.26713       	92.0633        	91.63058       	91.79654       	92.48682       	92.13839       	90.93062       	90.1742        	91.95143       	91.60346       	92.105675      	91.64192       	92.17907       	92.588295      	91.07199       	91.96247       	92.68124       	91.48658       	92.60401       	92.77492       	92.494255      	93.60841       	93.31828       	91.05563       	91.17744       	93.70842       	93.012726      	93.336136      	92.50489       	93.330925      	93.22656       	93.0451        	92.495674      	92.808334      	92.74743       	93.348335      	93.56273       	92.39007       	92.79987       	94.21444       	93.46886       	93.7684        	93.77348       	93.14962       	93.25679       	
92.07549       	92.21602       	92.535324      	92.66427       	92.76334       	92.24588       	90.66154       	90.46384       	92.57186       	92.76476       	92.072784      	92.29196       	92.02088       	92.28386       	92.103516      	92.67327       	92.51657       	91.10713       	92.70507       	92.56346       	92.55071       	92.77198       	92.56093       	93.07585       	93.33728       	92.85452       	92.37326       	92.51861       	92.81556       	92.86366       	92.81279       	92.73335       	93.019905      	92.79676       	91.90473       	93.03926       	92.7564        	92.82514       	93.237305      	93.73426       	93.97859       	93.91442       	92.54301       	93.03331       	92.89003       	92.61834       	93.55478       	93.40449       	93.18757       	93.39761       	93.99916       	93.659836      	93.88984       	93.91116       	93.22108       	93.191895      	93.221664      	93.26794       	92.83076       	91.66178       	92.73601       	94.04396       	93.84668       	94.379265      	94.6442        	93.878204      	94.57002       	94.34339       	93.670586      	94.83907       	94.56517       	93.72318       	94.23596       	94.82202       	94.20012       	94.79749       	94.32247       	93.87004       	93.912704      	92.00391       	93.69364       	93.65998       	93.53451       	93.61061       	94.28374       	94.13717       	94.234055      	94.485         	93.40252       	94.04522       	94.13065       	93.765495      	94.280754      	93.41439       	92.95732       	94.11853       	93.437         	93.57215       	94.12177       	93.58587       	
94.35302       	93.264145      	92.9541        	93.702705      	93.94109       	91.07308       	90.01892       	91.40473       	92.41206       	93.684044      	93.84362       	93.03356       	93.08109       	93.545525      	93.60812       	93.450806      	94.610146      	93.837326      	94.11573       	94.83884       	93.426025      	93.369194      	93.74671       	93.46471       	93.910484      	94.69113       	93.37683       	94.21197       	94.43287       	93.54198       	93.49877       	94.423965      	94.002914      	94.63925       	94.407974      	93.98223       	94.3628        	94.21578       	94.15133       	94.74429       	93.64335       	93.60786       	94.39506       	94.217575      	94.21451       	94.591995      	93.762054      	93.96745       	94.46036       	93.2671        	93.17016       	93.88859       	93.37287       	93.78394       	93.17436       	93.13651       	93.71049       	93.5101        	93.13233       	92.90836       	93.52713       	92.86156       	93.70297       	93.58049       	93.635414      	94.52947       	93.917114      	93.47729       	94.09717       	93.45439       	94.31634       	94.493126      	92.78973       	93.7015        	94.382095      	93.63818       	94.73368       	94.50038       	94.16387       	94.68319       	94.56406       	94.099236      	94.83116       	93.81613       	93.726265      	94.64652       	93.81563       	93.466095      	93.67171       	92.19018       	92.595955      	93.30339       	93.27577       	90.806625      	90.992645      	93.218834      	93.49544       	93.96501       	93.179794      	93.42326       	
93.18938       	92.96235       	93.69957       	93.88655       	93.44286       	91.74549       	90.414604      	92.32105       	92.68824       	93.468925      	93.87741       	93.561775      	92.74517       	93.43869       	92.74889       	93.238976      	92.984695      	93.171196      	93.00616       	93.39607       	91.90822       	93.257744      	93.74853       	92.361786      	92.86788       	92.95316       	92.12587       	93.106804      	93.20918       	92.89022       	93.3071        	93.13548       	92.33542       	93.31341       	92.97185       	92.65466       	93.62155       	93.14727       	92.72865       	92.680786      	93.287964      	92.866714      	93.15954       	93.21563       	93.26119       	94.52809       	93.45227       	94.290535      	93.93625       	92.34936       	93.05036       	93.16472       	92.259926      	92.51945       	91.23813       	92.72951       	93.29858       	92.86374       	92.61011       	92.51118       	91.81104       	91.520454      	92.15088       	92.07158       	92.162315      	92.88742       	92.92538       	92.85814       	93.386444      	92.99342       	92.82738       	93.396194      	92.863716      	92.79271       	93.19368       	93.0688        	92.626045      	92.82647       	92.48495       	92.54949       	92.97741       	92.04648       	92.541466      	91.81081       	90.87008       	92.51714       	91.21764       	91.783485      	92.78492       	92.490715      	91.84101       	92.63982       	93.29003       	93.13515       	92.93864       	93.21379       	92.873116      	93.13055       	93.278076      	93.26568       	
92.49521       	92.707405      	92.92095       	93.21245       	93.03828       	92.77056       	92.69063       	92.92381       	92.65003       	93.11693       	92.935875      	93.0206        	93.100555      	92.75636       	93.37855       	93.17818       	91.70848       	92.4992        	92.59327       	92.325935      	92.8867        	92.403         	92.38371       	93.092         	93.32156       	92.37946       	92.60181       	92.81706       	92.33267       	92.74944       	92.44856       	91.61644       	92.64799       	91.03512       	91.06869       	93.650345      	93.43251       	93.29804       	92.521126      	92.44428       	92.40236       	93.0028        	92.944595      	93.129105      	93.149994      	92.887115      	90.511925      	90.28647       	93.52157       	93.9222        	93.29023       	93.5797        	93.49536       	93.329956      	92.75729       	93.4159        	92.3488        	93.325386      	93.1847        	92.62773       	93.30295       	92.87297       	92.59573       	93.22944       	92.467316      	92.14075       	93.533745      	92.77353       	93.20615       	93.22416       	91.62073       	92.212166      	92.667145      	92.19779       	91.91219       	93.18945       	92.489815      	92.42209       	92.19789       	91.9165        	91.05373       	91.36537       	92.569244      	92.477715      	92.17994       	91.91031       	92.306114      	92.14515       	92.046455      	91.720345      	90.684586      	91.00679       	91.620804      	91.872086      	91.850334      	91.97156       	91.396645      	91.87472       	91.10218       	91.444         	
93.17634       	93.07442       	92.91225       	93.083954      	93.28641       	93.07545       	92.45557       	92.33577       	92.449005      	92.84565       	92.787094      	92.40898       	92.45284       	92.759514      	91.7295        	91.63639       	91.45633       	91.953926      	92.454994      	92.78555       	93.23446       	93.26159       	92.72465       	92.64278       	92.60575       	92.796074      	92.64843       	92.53023       	92.905365      	92.65944       	92.374596      	92.89174       	93.65132       	93.53451       	93.229904      	92.718925      	92.40762       	92.38683       	92.71746       	92.85555       	93.03963       	92.9747        	92.69695       	93.19997       	93.58565       	92.35828       	90.61276       	90.15517       	91.99171       	93.82899       	93.034225      	92.952805      	93.511         	93.29414       	92.36223       	93.20349       	92.93255       	92.59196       	93.24068       	92.35119       	92.1935        	91.89638       	92.37038       	93.446884      	93.26025       	93.17471       	92.52908       	92.71211       	93.254555      	92.64079       	93.36199       	92.63977       	92.95397       	93.146576      	92.616745      	93.2728        	93.442955      	93.21418       	93.751335      	93.28541       	90.1585        	90.267105      	93.291855      	92.75209       	92.8602        	93.30108       	93.147446      	92.420395      	92.77919       	93.02349       	92.83509       	92.79323       	92.6424        	92.681076      	92.93595       	92.231766      	92.81213       	92.400566      	91.64506       	93.106964      	
94.7045        	93.83325       	93.75223       	94.07675       	94.15424       	93.7334        	94.15588       	94.89315       	94.22761       	93.9093        	95.26405       	94.341805      	94.07057       	95.67203       	94.51596       	94.584435      	95.39149       	94.52691       	94.77111       	95.74886       	94.87183       	95.73825       	95.57563       	93.84914       	95.0147        	95.15487       	94.628296      	95.098946      	95.83344       	95.73781       	95.95688       	94.83716       	94.018135      	95.12746       	94.59123       	94.308556      	95.24886       	95.69722       	95.09736       	95.52508       	95.092155      	94.57111       	95.26508       	94.68531       	94.57235       	94.74095       	94.19683       	94.060745      	94.74105       	94.41072       	94.75618       	94.80236       	94.5681        	94.65512       	94.95551       	94.085655      	94.16939       	93.961555      	93.66199       	94.29123       	94.205284      	94.00284       	94.17318       	94.00518       	94.273674      	94.8036        	93.770546      	94.08081       	94.024666      	90.60767       	93.00322       	94.71034       	94.01407       	94.666855      	94.07341       	93.947945      	94.19369       	94.25712       	93.629814      	94.593216      	94.081924      	92.96693       	94.53756       	93.65413       	93.46765       	94.58013       	93.495         	93.64178       	94.39544       	92.94005       	92.96383       	94.09077       	93.24198       	93.55494       	94.12233       	93.48193       	93.17021       	93.29674       	92.32051       	93.330894      	
91.89538       	91.88653       	91.82776       	92.05141       	91.80437       	91.96191       	92.20503       	91.57358       	92.39418       	92.817         	91.61227       	91.77748       	92.34969       	91.521065      	90.816536      	91.58021       	91.21674       	91.316086      	90.65419       	91.25822       	91.36308       	90.8951        	91.00847       	91.20401       	91.25081       	90.81856       	91.52031       	91.36797       	89.81571       	89.51097       	91.58886       	91.798386      	91.609055      	91.28324       	92.3556        	92.12946       	91.55269       	92.6947        	91.962875      	91.18714       	91.655876      	92.07298       	91.41162       	92.000336      	92.21016       	91.85308       	92.407684      	92.01639       	92.09676       	92.96799       	90.985756      	92.70617       	92.818375      	91.975266      	92.89587       	92.70361       	92.57769       	92.63884       	92.23676       	92.593025      	92.79247       	92.24808       	92.36195       	92.293495      	92.537636      	92.83887       	93.04391       	92.24817       	92.06015       	89.20189       	88.71071       	92.30903       	92.07393       	92.38249       	91.86467       	90.99177       	92.455864      	92.61762       	91.68623       	92.90398       	92.96102       	92.82364       	92.80775       	92.65522       	92.42485       	92.57138       	92.65589       	92.43273       	93.08843       	92.05708       	92.52109       	92.4923        	91.67976       	93.1713        	92.44349       	91.84462       	91.78333       	91.07614       	91.613686      	92.21966       	
92.464096      	91.96437       	92.463715      	93.00345       	93.31851       	92.77103       	92.68118       	93.3826        	93.104774      	93.229454      	94.04465       	92.8413        	93.0114        	93.247246      	92.984505      	92.442345      	92.26401       	92.27624       	92.619385      	93.02613       	92.94621       	93.64538       	93.87569       	93.248665      	94.11711       	94.15084       	93.5851        	94.32365       	94.26791       	92.91646       	94.05347       	93.96375       	94.07474       	94.617935      	94.37802       	94.132965      	94.13277       	93.51453       	93.64195       	94.05519       	93.274155      	93.41841       	94.01102       	93.783005      	94.34074       	95.046715      	93.76695       	93.36768       	94.44006       	94.13982       	93.90781       	94.58758       	93.66495       	94.36968       	93.91821       	94.23519       	94.43686       	93.6638        	93.45897       	94.01667       	93.71729       	92.72861       	93.70057       	93.744415      	93.03875       	93.574715      	93.25699       	93.08843       	93.33363       	92.65959       	92.93364       	93.16305       	92.796455      	91.36646       	91.43358       	93.23315       	93.23862       	93.45423       	92.98791       	92.79285       	93.21861       	92.62865       	92.538994      	91.97177       	92.804726      	92.69805       	92.97755       	93.332726      	93.25908       	92.94005       	92.59931       	90.84638       	90.24329       	92.432014      	93.42663       	93.478355      	93.383804      	93.7116        	93.05615       	92.57588       	
92.83233       	92.5244        	92.71803       	92.97302       	92.6743        	91.73474       	92.52588       	92.78671       	92.1266        	93.22168       	92.597946      	90.98205       	92.369064      	92.437904      	91.95236       	91.51758       	91.059494      	91.75792       	92.11483       	91.90698       	92.100464      	92.80946       	92.36689       	91.793365      	92.85462       	92.61868       	92.179695      	92.45845       	91.99278       	91.59579       	89.593315      	89.48408       	92.03502       	92.87889       	91.81493       	91.692085      	91.871475      	91.72203       	91.68531       	91.731766      	91.80712       	92.02116       	91.50309       	91.635216      	92.00391       	91.92842       	91.14242       	90.93336       	90.90553       	90.7891        	90.79723       	91.335075      	90.870575      	90.44292       	90.53101       	90.865845      	91.17936       	91.57198       	90.70532       	91.34576       	90.79943       	88.89931       	90.53737       	91.20384       	91.08986       	90.44809       	90.96591       	91.34176       	92.35327       	91.45316       	92.04411       	91.78344       	91.6374        	91.41138       	90.36926       	91.80791       	92.31325       	92.32783       	92.230064      	92.53108       	92.43424       	92.08626       	92.14605       	91.86585       	91.87629       	92.585686      	91.95615       	91.74537       	92.58586       	92.18595       	92.26252       	92.867035      	91.14053       	91.87642       	92.76202       	91.99137       	91.28313       	92.365395      	91.559006      	92.4711        	
93.98917       	94.46109       	94.25666       	93.223175      	92.70676       	93.77851       	93.32362       	92.94112       	93.98554       	94.100006      	91.13558       	90.17225       	92.152985      	93.18568       	93.29916       	93.03654       	93.250175      	92.89704       	92.619225      	93.163155      	92.65502       	92.44982       	92.14782       	92.65103       	91.72694       	91.7729        	92.94865       	92.387436      	92.77554       	92.73014       	91.319466      	91.13402       	92.49339       	92.66904       	92.87657       	91.83696       	92.55401       	92.631355      	91.777084      	92.23328       	90.535675      	90.80469       	92.21229       	91.286026      	92.199615      	92.20735       	92.41092       	91.5977        	91.56308       	92.44523       	91.980515      	92.787704      	92.83575       	92.299576      	93.44903       	93.01669       	92.505615      	92.568405      	92.18304       	92.26624       	92.634125      	91.919235      	92.45357       	92.85192       	91.996506      	92.15302       	91.17708       	92.31841       	92.19088       	92.17924       	92.23666       	92.04173       	91.995735      	92.311516      	92.47958       	92.61053       	91.00316       	92.27265       	91.98444       	92.22145       	92.401665      	92.405876      	92.26818       	92.59453       	93.08621       	92.52922       	92.92226       	91.98784       	91.67473       	92.05318       	91.93309       	92.34618       	92.62167       	91.91408       	92.391655      	93.06392       	92.5348        	92.67833       	93.54256       	92.186066      	
93.55591       	93.265305      	93.650925      	94.29329       	94.01215       	93.24267       	93.33941       	94.05407       	93.18212       	93.49073       	91.08482       	88.7058        	90.9718        	92.606255      	92.597824      	93.91928       	92.782455      	92.97533       	94.15593       	93.416176      	92.85228       	93.2596        	92.2408        	92.4912        	92.84054       	92.84482       	93.45215       	94.01857       	93.379974      	93.75781       	94.05749       	93.86287       	94.669586      	94.43795       	93.846275      	94.124985      	93.44547       	93.025276      	94.4753        	94.28586       	94.121284      	93.499916      	93.69963       	93.65698       	94.084465      	94.16818       	94.22075       	94.0623        	94.06185       	93.931816      	94.06714       	93.88191       	93.617935      	94.35861       	93.92829       	94.01407       	94.38121       	93.06066       	93.78256       	94.34514       	93.87798       	93.98345       	94.16603       	93.14931       	93.56404       	93.75586       	93.33808       	93.97193       	93.99426       	94.4777        	94.253426      	94.01987       	93.65625       	94.25672       	93.85392       	93.57335       	94.30179       	94.196465      	94.4014        	94.377045      	94.562935      	93.57134       	94.97147       	94.13142       	94.581696      	94.95761       	93.94439       	94.5478        	94.10389       	93.225105      	93.37812       	93.709305      	92.552704      	94.06591       	93.68177       	92.64366       	93.73549       	92.935905      	92.71669       	93.52047       	
93.42888       	93.65785       	93.141205      	92.497604      	92.87785       	93.634285      	93.177864      	93.19117       	93.880806      	93.19598       	93.54726       	92.62727       	92.385345      	93.08314       	93.95265       	93.148506      	93.135796      	93.169685      	92.24061       	92.59269       	93.42995       	92.25239       	92.758675      	92.51684       	92.44978       	92.81299       	92.85552       	92.32882       	92.93612       	92.95737       	92.33888       	93.44486       	91.031494      	91.76875       	93.031425      	93.0454        	93.211876      	93.85233       	92.65929       	93.01247       	94.53946       	92.87221       	93.0623        	93.05511       	92.27672       	93.0622        	93.10772       	92.197716      	93.38734       	92.348274      	91.505806      	93.391205      	92.85571       	92.90695       	93.73072       	91.904495      	92.73197       	93.38847       	92.826645      	93.312294      	93.09376       	92.20924       	93.14513       	93.116714      	93.317635      	94.05477       	91.93389       	92.33712       	93.22511       	92.564156      	93.199585      	92.27064       	91.54625       	92.6674        	92.49443       	91.664925      	92.72352       	91.963905      	91.800224      	93.43721       	92.18515       	92.34225       	92.71823       	92.50335       	91.52579       	92.928474      	92.51899       	91.805916      	92.24879       	91.30249       	91.321686      	91.42852       	91.30008       	90.476616      	89.600044      	91.81813       	92.701645      	92.73412       	92.12877       	92.79717       	
92.40174       	93.070305      	93.183525      	93.349045      	93.10766       	92.24592       	92.59208       	91.7701        	92.11006       	92.997406      	92.55134       	92.781654      	93.02801       	92.54488       	92.633255      	93.34347       	92.44615       	92.69133       	92.43211       	92.501175      	92.81554       	92.74533       	92.45058       	92.09557       	92.86893       	92.637276      	93.41417       	92.066536      	92.05849       	93.05797       	92.324425      	92.38212       	93.338394      	92.909004      	92.85119       	92.67624       	92.36588       	93.39397       	92.58409       	92.38905       	93.50847       	93.19934       	92.61039       	93.370514      	92.99903       	93.48029       	93.21352       	92.402275      	92.68127       	93.10668       	92.40614       	93.90329       	93.64934       	92.826164      	93.29487       	92.73296       	92.21062       	93.17784       	92.97093       	92.40194       	92.78997       	92.29671       	92.06368       	92.870285      	92.20584       	92.67536       	92.76112       	91.449005      	93.14001       	93.721695      	93.287346      	93.3961        	93.088264      	92.280235      	92.858734      	92.02379       	91.57808       	93.04876       	91.88976       	91.09547       	92.32624       	92.11893       	91.774734      	92.22047       	91.912384      	92.23532       	93.39104       	92.67872       	92.39354       	93.36337       	92.78254       	91.97271       	92.88398       	90.47429       	90.1197        	92.18425       	92.79956       	94.0332        	93.996         	93.476654      	
91.16591       	91.246086      	91.97069       	92.1536        	91.93735       	91.736115      	92.19648       	91.51855       	90.78514       	92.02161       	91.65685       	91.41253       	91.67548       	91.043526      	90.938774      	91.822784      	90.78988       	91.76079       	91.5118        	90.47243       	91.60498       	91.48676       	90.73372       	91.42586       	91.18888       	90.426254      	91.538895      	91.10319       	91.39266       	91.64942       	90.59961       	90.72791       	91.62765       	90.82767       	91.19105       	91.35273       	90.15158       	90.78203       	91.19262       	90.81067       	90.862236      	91.89022       	91.64611       	91.50624       	91.057755      	90.82958       	91.629524      	92.05744       	91.31175       	91.982834      	91.42506       	91.30029       	92.406364      	91.52908       	91.03871       	91.63581       	91.17917       	91.312096      	91.31656       	90.74215       	91.21354       	91.59962       	91.32409       	91.66859       	92.02937       	90.426094      	91.48193       	91.72334       	90.686935      	92.02403       	92.35208       	91.885124      	92.16916       	92.36364       	91.38718       	92.961624      	92.8002        	91.86293       	92.53016       	92.63258       	92.38574       	92.54312       	92.056465      	91.3794        	92.704254      	92.48448       	92.076744      	92.98286       	91.92411       	92.1379        	92.2872        	91.67481       	92.36917       	92.4496        	91.52629       	93.17341       	92.56462       	92.759895      	93.084946      	91.582184      	
93.83313       	92.99486       	92.89114       	93.56837       	94.06481       	92.6013        	92.79814       	93.60099       	92.830246      	92.63325       	93.53432       	93.53471       	93.49576       	93.806564      	93.32099       	93.313156      	93.479485      	93.50943       	93.50624       	93.002884      	92.36528       	93.25389       	93.150215      	92.76307       	93.89338       	93.377884      	93.17287       	93.099075      	93.42163       	93.71208       	93.021904      	92.6456        	93.04586       	93.7623        	92.889595      	93.10266       	92.83406       	93.048134      	93.39828       	93.75941       	92.73831       	91.93742       	91.78641       	93.19515       	92.71952       	92.81466       	92.85169       	93.223274      	92.39314       	91.964874      	93.13998       	92.82952       	92.099556      	92.915474      	92.57669       	91.66735       	92.14546       	91.58324       	92.422104      	92.53987       	90.99324       	91.70318       	91.447235      	90.72993       	91.31496       	91.23369       	90.28156       	91.42451       	92.071304      	90.73493       	91.60853       	91.52333       	90.88573       	92.07445       	91.03198       	90.94292       	92.19548       	91.48933       	90.80201       	92.18172       	91.00262       	91.13377       	93.10852       	91.55608       	91.475235      	92.023895      	91.026665      	92.28017       	92.04411       	91.48931       	92.79651       	92.46481       	91.3591        	92.899345      	92.560394      	92.19394       	93.51092       	92.25861       	92.40736       	92.92398       	
93.19583       	92.44188       	92.70797       	93.36255       	93.666695      	92.58585       	93.032486      	93.44451       	93.09935       	92.204346      	93.40845       	92.785965      	92.303314      	92.77788       	92.63799       	92.28041       	93.61095       	92.84595       	93.67742       	94.09178       	93.469986      	93.7117        	93.2079        	92.65223       	92.11027       	91.90064       	92.667656      	93.26407       	91.64775       	91.046524      	93.70569       	93.72368       	93.165054      	93.75818       	93.32692       	92.950264      	93.49817       	93.130356      	92.33754       	92.86072       	93.094696      	91.10899       	91.073715      	93.45724       	93.12043       	94.150566      	93.49903       	93.044876      	94.14887       	93.35638       	94.21752       	93.32389       	93.25383       	93.52017       	93.96636       	93.29823       	92.98962       	93.107346      	92.405266      	92.91969       	93.297646      	93.42997       	92.78632       	93.34954       	92.5805        	92.75882       	92.9404        	92.31124       	92.70505       	92.55116       	92.6313        	93.41271       	93.147         	90.77494       	93.20342       	93.394424      	92.83497       	93.01705       	93.19576       	93.21988       	93.372055      	93.26611       	93.748825      	93.29872       	92.31804       	92.798134      	94.26238       	93.92102       	93.69506       	93.661674      	93.594536      	93.10805       	93.53514       	93.71662       	92.71953       	93.41975       	93.12028       	93.03596       	93.287964      	93.348305      	
90.66614       	91.22025       	90.67486       	90.622444      	90.50394       	91.09319       	91.62415       	91.33159       	91.01359       	91.674446      	91.1783        	91.33803       	91.42126       	91.94786       	91.14812       	91.70076       	91.02937       	91.210556      	91.152504      	91.29904       	92.30732       	92.43179       	91.6362        	92.04224       	90.63512       	88.75703       	90.31356       	92.696175      	91.603806      	91.14424       	92.90368       	93.08931       	92.891815      	92.93114       	92.700386      	93.09291       	92.44646       	92.46402       	92.912926      	92.4418        	93.098236      	93.2922        	93.111435      	93.10034       	93.038956      	92.71105       	92.11312       	92.703964      	92.39457       	92.106804      	92.41417       	92.11435       	92.53329       	93.68213       	92.80335       	91.717125      	93.71948       	92.9875        	94.428925      	94.097725      	94.42742       	93.55649       	93.97685       	93.53138       	93.648674      	93.71292       	93.54096       	93.39959       	93.88476       	93.49048       	93.84352       	93.72997       	93.70527       	93.53863       	94.0258        	93.70951       	94.188225      	94.45789       	94.18254       	94.63326       	94.239365      	93.79554       	94.74151       	92.99205       	91.21082       	91.537315      	92.99285       	94.56481       	95.323845      	94.330444      	94.381065      	94.27214       	94.09953       	94.281456      	94.76222       	93.86308       	91.59512       	91.980545      	94.4247        	95.345894      	
91.86175       	92.179245      	91.95755       	91.95328       	92.1384        	92.599525      	92.36559       	91.787125      	91.87215       	91.6259        	91.33963       	91.79819       	91.66093       	92.13871       	92.03947       	91.0315        	91.175705      	92.14849       	91.55866       	91.547905      	92.245026      	92.56003       	92.8482        	92.476974      	91.5498        	89.03543       	90.830215      	92.186874      	91.8968        	92.220474      	92.06595       	92.59478       	92.447464      	92.02319       	91.83626       	92.056366      	92.056915      	92.12385       	92.744804      	91.92724       	92.34261       	92.44207       	92.27806       	92.44862       	92.311325      	92.22525       	92.0138        	92.03458       	93.13314       	93.01571       	92.73331       	92.266846      	93.241425      	93.1513        	93.02206       	93.04992       	92.64682       	92.38841       	92.66455       	93.410675      	92.74997       	92.96683       	93.49784       	93.048096      	93.3801        	93.09513       	92.9346        	93.230606      	93.26725       	93.62276       	93.633736      	93.93509       	93.44826       	93.881226      	94.07276       	93.34349       	94.02623       	93.20645       	93.68731       	93.5656        	93.1818        	93.15651       	93.291595      	92.747116      	90.525475      	89.76645       	91.8337        	93.6953        	93.67978       	94.09925       	94.07111       	93.44744       	93.06677       	92.733345      	94.21715       	93.419075      	92.042305      	91.31962       	92.82132       	93.62015       	
92.22692       	91.99511       	92.19709       	92.20993       	92.07622       	92.72401       	91.761734      	92.17309       	92.65785       	91.982574      	92.65784       	93.21778       	92.20556       	92.93666       	92.343315      	92.19454       	92.293655      	92.483246      	91.07099       	92.17603       	92.606094      	92.879684      	93.03341       	93.16988       	92.46304       	92.8962        	93.07227       	92.95744       	92.67536       	92.33836       	92.08814       	90.22233       	92.0959        	92.25965       	92.92172       	92.290764      	92.274055      	92.357086      	92.54598       	91.98946       	92.68913       	92.50884       	92.134575      	92.495316      	92.34406       	92.57467       	92.605576      	92.65115       	93.303345      	92.963486      	92.66564       	92.85578       	92.06398       	92.66426       	92.35904       	92.30926       	92.19697       	91.79768       	92.14103       	92.590576      	91.12934       	91.51279       	92.745255      	92.64031       	92.12877       	92.2626        	92.18481       	92.33717       	92.19511       	92.494644      	93.01494       	92.73709       	92.21776       	92.14225       	92.41481       	92.090324      	91.633095      	91.53854       	91.40154       	91.5389        	91.59989       	90.79903       	91.696175      	91.81507       	91.96933       	91.708496      	91.91939       	91.19808       	91.38693       	91.23934       	91.044525      	92.01869       	92.327545      	91.33741       	91.692215      	92.21179       	92.034836      	92.02837       	92.16965       	91.67541       	
92.453545      	92.05627       	91.70243       	91.74557       	92.162834      	92.22987       	91.700226      	92.10628       	91.671196      	91.439285      	91.49787       	91.165436      	91.89156       	91.6871        	91.81678       	91.52042       	91.847305      	92.62416       	89.728714      	90.43555       	92.068375      	91.99838       	91.83454       	92.52735       	91.9786        	92.146774      	92.11117       	91.14969       	91.560074      	91.78201       	92.00871       	92.192764      	92.22763       	91.85191       	92.27284       	92.05759       	92.79377       	92.85545       	92.59653       	92.283936      	91.92939       	92.75729       	92.907585      	92.09091       	92.002205      	92.22225       	92.153275      	92.026115      	92.166916      	92.6648        	93.155045      	92.47864       	91.79594       	93.399734      	93.063614      	92.645645      	92.994545      	92.98262       	92.99919       	93.86877       	93.23185       	92.34703       	93.7332        	93.59339       	93.6483        	93.857025      	93.999374      	93.30014       	93.96471       	93.67685       	93.24466       	93.83914       	93.13892       	93.87928       	94.49333       	93.0003        	92.96554       	93.2804        	91.87428       	93.088875      	93.54407       	93.70215       	93.14095       	93.46081       	93.83166       	93.06681       	93.91108       	93.90629       	93.964806      	93.95642       	94.389725      	94.517075      	94.8393        	93.283         	93.789276      	94.98141       	94.00075       	94.22749       	94.73482       	94.319405      	
92.22447       	92.626625      	92.620735      	92.71685       	92.545616      	92.31368       	92.6694        	92.18229       	92.43567       	92.7238        	92.35281       	92.767944      	93.197174      	93.13001       	93.048615      	92.939606      	92.19203       	93.02908       	93.40825       	92.653824      	93.3444        	93.27515       	92.769775      	92.77695       	92.35583       	92.259926      	92.5549        	92.83924       	92.71045       	91.80933       	92.20252       	91.968155      	92.18033       	92.23898       	91.80668       	92.71667       	92.53868       	92.83546       	92.46526       	92.51155       	92.48537       	92.77849       	92.43836       	93.11906       	93.263374      	92.60132       	93.148796      	93.42113       	93.10898       	93.49939       	93.04029       	90.418976      	89.798294      	90.91199       	92.910324      	93.49722       	92.92345       	92.81173       	92.608475      	92.713165      	92.93859       	91.91936       	92.397736      	92.34773       	92.142334      	92.787926      	92.32806       	92.331024      	92.84745       	92.94252       	91.801544      	92.22244       	92.33841       	91.873955      	92.62762       	92.410164      	92.40213       	92.40512       	91.98942       	91.888115      	91.89771       	91.45628       	91.56196       	91.82674       	90.34077       	91.527794      	91.87744       	92.04491       	92.189384      	91.90349       	91.98534       	91.63809       	92.19373       	92.44618       	92.47405       	92.53894       	92.82055       	93.21326       	92.82742       	92.69901       	
91.06754       	89.86141       	90.307976      	91.851166      	92.493256      	92.012825      	91.59349       	91.65773       	91.631294      	91.39367       	91.5228        	91.9149        	91.76662       	91.40845       	91.49566       	91.58424       	92.04627       	91.8248        	90.56852       	89.69396       	91.793205      	92.1303        	92.54094       	92.31789       	92.15424       	92.37297       	92.42829       	92.21044       	92.755775      	91.91981       	92.616295      	92.25794       	92.65795       	92.701744      	93.1472        	92.61037       	93.14628       	93.03926       	92.437675      	92.358604      	93.74352       	93.43          	93.24166       	93.040665      	92.568245      	92.52048       	93.222664      	92.26977       	92.78662       	93.67876       	91.76997       	89.87369       	88.74075       	90.492355      	93.44414       	93.65455       	93.387505      	93.939644      	94.34274       	93.70891       	93.98388       	94.0132        	93.575005      	93.1949        	93.48249       	93.8154        	93.13486       	92.389175      	93.8285        	93.858315      	93.27325       	93.55921       	93.700165      	94.02506       	93.743706      	93.19331       	94.07576       	94.07638       	94.03201       	94.27052       	93.789474      	93.55466       	93.97945       	93.746185      	93.58128       	94.0913        	93.9532        	93.57608       	93.51491       	92.23307       	92.55713       	93.189835      	94.086845      	94.16066       	94.04777       	93.87279       	93.899284      	93.72537       	93.29728       	93.5896        	
91.32675       	91.13803       	91.36856       	93.02806       	93.86665       	93.82719       	93.729454      	93.56973       	93.56426       	93.6805        	91.83609       	91.781265      	93.020996      	93.57926       	94.15146       	93.51029       	93.50834       	94.13262       	93.06993       	91.222885      	93.55066       	94.04183       	93.25369       	93.42453       	93.345634      	92.94951       	92.909225      	93.439255      	93.79239       	93.6331        	92.926796      	92.78678       	93.410065      	92.88928       	92.7374        	93.194626      	92.982086      	92.68823       	92.41288       	92.29394       	91.90205       	92.15173       	92.389984      	92.58473       	92.06461       	92.85114       	92.91267       	92.754         	93.00347       	93.10883       	92.534454      	90.43994       	89.64434       	90.15198       	93.03275       	93.45836       	93.9696        	93.81665       	93.44341       	93.552124      	93.37039       	93.56217       	93.20616       	93.88414       	93.71198       	92.99711       	92.880135      	92.31791       	93.208244      	93.22203       	93.021126      	93.03758       	93.29505       	91.96997       	93.526886      	91.80616       	93.42037       	92.99887       	93.469894      	93.511925      	92.69373       	93.05934       	93.05246       	92.81623       	92.85512       	92.12186       	91.7976        	91.56123       	93.1834        	92.689735      	91.36121       	92.62828       	93.107025      	93.03647       	93.06421       	93.48372       	93.507095      	93.78211       	93.57364       	92.60113       	
94.24096       	93.84326       	93.900955      	94.90716       	95.00268       	94.52492       	94.29912       	93.84044       	93.57202       	94.091515      	92.40258       	90.70472       	92.062096      	94.822586      	94.65983       	94.7928        	95.19115       	94.16285       	94.560394      	95.13443       	95.22076       	94.99699       	95.29382       	94.35473       	94.0384        	93.9755        	93.965576      	94.64816       	94.37535       	93.34781       	93.98367       	94.40381       	93.52764       	94.627914      	93.72196       	94.3197        	94.66985       	93.68424       	93.609634      	94.49901       	94.40587       	94.26938       	94.74207       	94.53382       	94.63295       	94.35422       	95.12019       	94.59114       	94.64693       	94.43603       	94.92407       	94.534546      	94.23097       	94.19191       	94.4243        	94.79353       	93.49887       	94.32991       	94.502495      	94.0513        	94.2492        	93.140915      	93.581635      	94.44935       	94.50446       	95.20048       	94.32429       	94.32785       	94.029106      	92.916245      	93.963745      	94.650986      	94.11898       	94.393715      	94.34527       	93.873405      	93.58293       	93.128784      	93.54703       	93.777145      	93.932816      	93.84931       	94.22969       	94.0634        	93.765015      	93.59875       	93.83177       	94.565834      	94.154625      	93.96208       	94.50864       	95.00298       	95.03613       	94.667694      	93.941574      	94.401054      	94.42647       	94.18336       	93.85204       	94.29341       	
91.35987       	91.53857       	91.94685       	92.45724       	91.81823       	91.57231       	91.85254       	91.65914       	91.275505      	91.77499       	91.05559       	88.58509       	88.65149       	91.12916       	91.52474       	91.59836       	90.68891       	91.08585       	90.9679        	90.183975      	90.51378       	90.75829       	90.29296       	91.07624       	90.32602       	90.82328       	90.973404      	91.00551       	90.08855       	88.93388       	90.64795       	91.073395      	90.718575      	90.56025       	91.46781       	90.86464       	91.05074       	91.62134       	90.59886       	90.95596       	90.673836      	90.86483       	90.877495      	91.03327       	90.83459       	91.670334      	91.648766      	91.5011        	91.64267       	91.22522       	90.991714      	91.911         	92.10727       	91.59954       	91.65964       	91.830246      	91.45817       	91.3838        	91.12593       	91.43986       	91.75819       	91.27759       	91.61886       	91.939766      	91.21281       	91.44896       	91.902695      	91.69441       	91.85229       	91.691124      	91.62523       	91.9124        	91.44833       	91.30257       	90.67407       	91.00243       	90.76559       	91.21288       	91.159424      	90.99199       	91.14391       	91.853584      	91.565056      	91.47945       	91.81758       	91.4617        	90.66197       	91.83276       	91.308235      	91.05482       	91.83705       	91.917984      	91.85284       	92.08456       	91.927704      	91.63573       	91.81059       	91.950066      	91.52792       	92.503204      	
92.04895       	91.998886      	92.0688        	92.00368       	92.03084       	91.99849       	91.465546      	91.88454       	92.020134      	92.168495      	91.42101       	91.59513       	91.722885      	91.6856        	91.64205       	91.53786       	91.99022       	91.70914       	91.24312       	91.597244      	90.4783        	90.38494       	91.363434      	92.21905       	91.67813       	91.44612       	92.3649        	91.426254      	91.1032        	91.525116      	91.837845      	91.515274      	91.79932       	91.21827       	90.952065      	91.41947       	91.247345      	91.319016      	91.61484       	91.5332        	91.50463       	89.94996       	90.78256       	92.048134      	90.91652       	90.043205      	91.15488       	91.09655       	91.277214      	92.04928       	91.42679       	91.721         	91.85698       	91.54666       	91.62292       	91.3712        	91.28038       	90.92669       	91.10643       	91.023735      	91.344894      	90.97277       	90.87151       	91.814926      	91.52579       	91.65823       	92.276375      	91.76018       	91.91452       	91.491776      	91.86661       	91.09423       	90.91275       	90.66753       	90.85896       	91.19969       	90.38447       	90.57531       	90.74439       	91.367134      	91.86658       	92.498985      	92.34356       	92.184616      	92.56185       	91.70979       	92.05461       	92.125786      	91.80685       	91.84395       	91.89836       	92.65173       	92.55057       	92.43686       	91.826775      	92.650604      	92.67885       	92.78954       	93.34047       	92.67174       	
93.79939       	93.61569       	93.6092        	93.7561        	93.87859       	93.53078       	93.52388       	93.30315       	93.25475       	94.01093       	93.51632       	93.60634       	93.50179       	93.57776       	93.840034      	93.72507       	93.68593       	93.0805        	93.71509       	93.34156       	93.208244      	92.07866       	93.44322       	93.47409       	93.13444       	93.29926       	93.42915       	93.04013       	93.01744       	92.58313       	92.92297       	92.85995       	92.71533       	93.080925      	92.97142       	93.56014       	93.242935      	93.2832        	93.45972       	94.05456       	93.44227       	93.739174      	93.90079       	93.27219       	93.08903       	93.0913        	92.29695       	92.09969       	92.769424      	92.560074      	92.73561       	93.73343       	92.84612       	92.81634       	92.63844       	92.75314       	93.204475      	92.9666        	92.311714      	93.41898       	92.21693       	92.674675      	92.31194       	93.27818       	93.60228       	93.3099        	93.30457       	92.87898       	93.35241       	92.682304      	93.03041       	92.938995      	92.2612        	91.96469       	92.3088        	92.41911       	92.47032       	92.48153       	92.298065      	93.27306       	91.50818       	89.53157       	90.84636       	93.048676      	93.90463       	94.08515       	93.56372       	93.01552       	93.66448       	92.81255       	93.14087       	93.218834      	92.62894       	93.42472       	93.18969       	93.00119       	92.77873       	92.97289       	93.06392       	93.43196       	
94.57106       	94.25467       	94.37819       	95.076744      	95.3164        	94.83365       	95.289024      	94.64549       	94.907906      	94.73669       	95.13469       	94.64903       	94.261         	94.27068       	94.22712       	94.56942       	93.915855      	93.55538       	93.66612       	93.30518       	93.77731       	93.8957        	93.40133       	93.73355       	93.78478       	93.4473        	93.69633       	93.94398       	92.83589       	93.042564      	93.322174      	93.10051       	93.43848       	92.88394       	94.015854      	94.386604      	93.57108       	93.43995       	93.539665      	93.1945        	93.09022       	93.87113       	93.151665      	92.67631       	92.76904       	92.05647       	92.71227       	93.11726       	92.65978       	93.10814       	93.5572        	93.210396      	93.55699       	93.28846       	92.961136      	93.629684      	92.82247       	92.6274        	93.45393       	92.38286       	92.04666       	92.02972       	92.28946       	92.111465      	92.969025      	92.634346      	92.53496       	92.97902       	93.2623        	93.680756      	93.44542       	92.48258       	92.83479       	92.86161       	93.03499       	92.968475      	92.36226       	93.21131       	92.7897        	93.6972        	92.18282       	89.52299       	90.01942       	92.38993       	93.83658       	93.8535        	93.9102        	93.91673       	94.051605      	92.96684       	93.358795      	93.78758       	93.27567       	93.5161        	93.47722       	93.30913       	94.285385      	93.92449       	94.228325      	94.249146      	
92.4409        	92.95657       	92.377716      	91.555984      	92.63887       	93.2421        	92.93344       	92.91744       	91.440956      	89.868         	91.08631       	93.29564       	92.52352       	92.68411       	92.009895      	93.07103       	92.80059       	92.15255       	92.64778       	92.041794      	90.214584      	91.47441       	92.86134       	92.233795      	92.921524      	92.7974        	92.43189       	92.27962       	92.189804      	91.65518       	91.89985       	92.59885       	91.8497        	92.693115      	92.18957       	91.91039       	92.21008       	92.475624      	91.983536      	92.204865      	92.26713       	91.65571       	91.99925       	91.72576       	91.50737       	92.29419       	91.49555       	92.3785        	92.414276      	92.57907       	92.397705      	92.937126      	92.45923       	92.77479       	92.62142       	91.93689       	92.012054      	91.78395       	91.770256      	91.58867       	91.92579       	91.923416      	91.9358        	92.14682       	91.98235       	92.49268       	92.01399       	92.2212        	90.92025       	91.904465      	92.37911       	91.79054       	91.7531        	92.28825       	91.93299       	92.49491       	92.31815       	92.053505      	92.859955      	92.87833       	91.85308       	90.42793       	89.70952       	92.19218       	93.72596       	92.4911        	91.21762       	92.76436       	92.74818       	92.04388       	92.30474       	92.0022        	91.51648       	92.426216      	92.532135      	92.32702       	92.59816       	92.79015       	91.884476      	90.727455      	
92.5966        	92.03247       	90.93038       	89.40071       	90.10814       	91.74938       	92.28264       	92.39269       	92.34726       	89.96896       	90.2699        	92.36527       	92.73137       	92.2734        	91.93938       	91.38803       	91.53395       	91.43623       	91.50989       	91.188446      	91.0312        	90.53264       	89.996635      	90.90196       	91.020454      	91.2719        	91.87566       	90.98111       	91.556206      	91.13213       	90.95384       	90.79631       	91.36515       	91.26767       	91.83028       	90.887         	90.14639       	91.34158       	91.325325      	91.27372       	91.345665      	90.348526      	90.53079       	91.169014      	90.94906       	90.76228       	91.399284      	91.297714      	91.28368       	91.49264       	90.85273       	91.40967       	91.8415        	91.57573       	91.88245       	92.21098       	90.59608       	91.35871       	91.137695      	91.414185      	91.89894       	91.513176      	91.718475      	91.62756       	92.08215       	91.65964       	91.38033       	91.54004       	91.91134       	91.487595      	91.58127       	91.003624      	91.13786       	91.80268       	92.47372       	92.28677       	91.71785       	91.51527       	91.9778        	91.62851       	92.83916       	91.93187       	92.03816       	92.61325       	91.979126      	92.1481        	92.62746       	92.231255      	91.49599       	91.550995      	91.37967       	92.12338       	92.02921       	92.144196      	92.01402       	91.340935      	92.3444        	93.55347       	91.88341       	88.61087       	
92.96732       	92.50306       	91.821335      	90.44666       	91.06265       	93.15833       	92.444824      	93.152954      	92.2101        	92.7814        	92.751816      	93.11124       	92.93843       	92.797455      	92.34843       	92.86126       	93.141075      	92.84002       	92.688545      	93.365654      	93.03089       	92.58448       	93.02232       	92.58862       	93.26747       	93.06381       	92.49706       	93.00087       	92.83466       	92.95504       	92.48268       	92.49235       	92.23397       	92.085945      	90.85853       	89.1059        	90.09398       	92.45982       	94.335075      	93.93811       	94.12813       	93.60425       	94.08062       	93.44031       	93.76744       	93.70029       	93.590485      	93.60804       	94.05118       	93.5146        	93.64361       	93.673294      	93.92996       	93.94444       	93.69698       	93.606255      	93.434944      	93.364716      	93.26149       	93.3474        	93.72098       	93.89281       	93.76511       	93.73497       	93.66167       	93.96027       	93.270645      	93.63888       	93.48276       	93.452515      	94.242805      	93.637886      	93.68157       	93.70809       	93.12752       	92.658165      	93.092125      	92.50391       	92.278725      	92.286835      	93.20023       	93.00916       	93.40707       	93.05413       	92.97895       	92.05737       	92.08424       	93.26695       	92.98047       	92.74292       	93.13982       	93.13114       	92.60209       	93.23424       	93.91851       	93.16996       	93.530136      	92.48035       	91.487785      	89.240105      	
94.53758       	93.8803        	93.312         	93.12056       	93.57612       	93.56392       	92.78382       	92.86081       	93.4325        	93.30794       	93.54009       	93.09095       	93.38405       	93.13013       	92.75387       	93.50947       	92.72062       	93.16134       	93.73287       	93.76922       	93.585075      	93.18019       	93.02405       	92.9242        	92.88715       	92.962944      	93.358406      	92.78073       	92.78144       	92.39792       	92.83114       	92.18675       	92.026825      	92.17139       	91.43448       	89.75703       	89.923355      	91.3957        	93.4039        	93.00186       	91.6457        	92.6831        	92.84794       	93.600624      	93.37235       	93.31344       	93.293304      	93.31711       	93.07352       	93.78825       	93.58287       	93.17613       	93.98466       	93.36136       	93.000244      	93.33546       	93.92902       	93.62748       	93.70902       	93.92635       	93.62779       	93.23048       	93.378105      	93.497795      	93.303925      	93.23524       	93.140816      	93.094284      	93.207634      	93.02312       	93.150055      	93.411385      	91.00427       	92.06522       	93.31961       	92.20825       	92.8441        	93.48853       	93.064766      	93.68389       	94.019035      	93.48998       	93.62779       	94.18412       	94.03878       	93.77387       	93.65474       	93.42774       	93.430695      	93.81151       	92.87558       	93.9295        	93.59523       	93.45932       	93.937126      	93.581085      	93.70232       	94.80766       	94.17392       	91.89144       	
92.819534      	92.84518       	93.04902       	93.14018       	92.80522       	92.8943        	92.953156      	92.51554       	92.44643       	92.04908       	92.2015        	92.116295      	92.22508       	91.88981       	91.00467       	92.208305      	91.60005       	92.2186        	92.18885       	92.298294      	92.75802       	93.09054       	92.15877       	92.50861       	92.80245       	92.28582       	92.80091       	92.308624      	92.25761       	92.228645      	91.75829       	92.27824       	92.920975      	92.38956       	92.601326      	92.513306      	92.155624      	92.23174       	92.786736      	91.92239       	91.57979       	92.083855      	91.77528       	92.31219       	91.731865      	91.06774       	91.814415      	91.36853       	92.101456      	92.54297       	91.68762       	92.37261       	92.86919       	92.37981       	91.85281       	91.812416      	91.85718       	91.116646      	90.49402       	91.85868       	91.32108       	91.797165      	91.70765       	91.59627       	91.76302       	91.178314      	91.491936      	92.198135      	91.634415      	89.566605      	90.17789       	90.60143       	88.58171       	89.84106       	91.06743       	91.14965       	91.053635      	90.73323       	90.7812        	91.08178       	91.253746      	91.44197       	91.13872       	90.99592       	91.57341       	91.66166       	91.54239       	91.81361       	92.42345       	91.14233       	91.88067       	91.804596      	91.39733       	90.75506       	91.34914       	91.382324      	92.13408       	92.21733       	91.78765       	92.50957       	
93.05184       	92.77332       	93.008675      	93.27424       	93.42273       	93.29633       	93.10657       	92.992714      	93.76307       	92.588135      	92.9668        	93.52584       	92.68869       	92.71415       	93.809814      	93.145645      	92.56053       	93.83179       	93.08266       	93.2758        	94.078705      	93.436066      	92.36248       	90.94774       	93.00337       	93.28182       	93.08643       	93.09057       	93.59607       	92.758125      	93.20963       	93.55696       	93.93363       	94.042534      	93.8361        	93.69702       	92.743614      	93.51207       	93.0609        	92.65198       	93.36852       	92.46815       	93.06449       	93.62082       	93.496475      	93.11948       	93.19117       	93.206825      	92.933464      	91.98707       	89.90811       	92.10169       	94.38348       	93.96598       	93.482216      	93.718704      	93.211235      	93.17115       	93.440254      	92.879715      	93.467415      	93.48634       	92.45565       	91.795044      	93.62423       	92.92558       	92.75309       	93.26122       	92.969635      	93.447876      	92.85006       	92.5715        	93.43078       	92.60616       	92.60271       	93.19995       	92.70238       	93.20074       	93.44164       	93.25285       	93.31873       	92.97773       	92.96788       	93.75514       	93.30828       	92.69515       	93.67409       	93.60095       	93.33375       	94.534294      	94.06445       	93.26417       	93.634926      	93.265274      	93.05702       	93.05434       	92.83094       	92.36192       	92.566216      	91.64609       	
92.74517       	93.09804       	93.306854      	93.33822       	93.083405      	93.32125       	93.81493       	93.445         	93.86925       	94.004395      	93.038734      	93.199745      	93.59596       	93.21854       	93.621735      	93.4192        	93.01468       	93.60267       	93.230194      	93.04797       	93.2996        	93.1551        	93.15641       	92.38294       	93.90226       	93.37786       	93.27534       	93.037315      	93.251816      	94.06802       	93.76501       	93.79494       	93.9668        	93.399506      	92.7747        	93.236084      	93.00476       	93.11705       	93.30526       	93.32553       	93.07617       	92.896935      	92.622604      	93.06662       	93.75404       	93.10192       	92.921104      	92.67927       	92.180504      	92.59405       	90.44141       	91.47131       	93.42282       	93.27957       	92.69015       	92.85555       	92.97421       	92.724625      	93.151596      	92.95397       	93.654655      	91.473305      	90.06413       	90.65069       	92.33034       	93.62854       	93.44315       	93.787674      	92.88191       	93.12446       	93.52905       	93.16511       	93.62491       	94.01107       	93.38892       	93.56815       	93.53316       	93.07714       	93.1213        	93.72342       	93.499405      	93.49926       	93.46463       	93.286705      	93.328094      	93.18346       	90.54076       	92.549614      	93.39987       	92.99278       	93.302574      	93.55849       	93.24824       	93.33126       	93.00451       	93.33812       	93.251495      	93.439766      	93.38233       	94.04235       	
92.101715      	91.477905      	91.847946      	92.46303       	92.41033       	92.2266        	92.31523       	92.402504      	92.20968       	92.04814       	91.52066       	91.16015       	91.86811       	91.42973       	90.84859       	91.87573       	91.1821        	91.794106      	91.94198       	91.5112        	91.70464       	91.54891       	91.49283       	91.414375      	91.73156       	91.229576      	91.318115      	91.22023       	90.02724       	91.70785       	92.314735      	91.46769       	91.305214      	91.43023       	90.50623       	90.90661       	91.06904       	90.226326      	91.1362        	90.659515      	90.958565      	91.29908       	90.21413       	90.37575       	90.92335       	90.38486       	90.61114       	91.06261       	90.40502       	91.06827       	91.84326       	91.22818       	91.673134      	91.16261       	90.84647       	90.88941       	90.4412        	90.167595      	91.18461       	90.651         	90.81048       	90.07708       	87.10475       	84.79732       	89.192184      	91.023636      	91.49297       	92.11933       	91.77872       	92.04717       	92.39367       	91.44079       	91.420006      	91.965645      	91.01066       	91.16212       	91.30998       	90.78893       	91.2506        	91.10716       	91.37931       	91.61293       	92.00463       	91.42414       	92.594635      	92.450226      	91.63771       	91.97004       	91.95756       	92.188736      	92.59586       	93.1701        	92.40472       	92.882675      	93.22244       	92.80766       	93.33426       	92.99728       	93.030624      	92.62802       	
94.80546       	95.05118       	95.24761       	95.28739       	95.40284       	94.17301       	94.66793       	94.1584        	94.255646      	94.37178       	94.336426      	94.15085       	94.24418       	93.65134       	94.05946       	94.17878       	94.20485       	94.58956       	93.93864       	93.72771       	94.16752       	94.0721        	94.32518       	94.0923        	93.857346      	93.217926      	93.78616       	93.692955      	93.834114      	93.855354      	93.32513       	93.94939       	93.621185      	94.204185      	94.10697       	93.58266       	93.84038       	93.60529       	93.59753       	93.70728       	94.19667       	94.07974       	94.00252       	94.394196      	94.35173       	93.898796      	93.951126      	93.60513       	93.67913       	94.07098       	93.824615      	92.11268       	94.176636      	94.173935      	93.56847       	93.97356       	93.916985      	93.579094      	93.2465        	93.01906       	92.748344      	93.36945       	91.31266       	88.55742       	90.00378       	92.90157       	92.8476        	93.546555      	92.80534       	92.37489       	92.600945      	92.02796       	92.02124       	92.83829       	92.40311       	92.19929       	92.60643       	91.82032       	92.52481       	92.56349       	91.7173        	91.84966       	92.488434      	92.00003       	92.58907       	92.58206       	92.46134       	92.08345       	91.87641       	91.49367       	91.16261       	91.24342       	91.9358        	91.281075      	91.14807       	91.20136       	91.10657       	91.31393       	91.824936      	91.3981        	
91.33714       	91.81649       	91.87472       	91.71595       	91.99427       	92.09207       	91.49049       	91.48737       	92.194244      	92.01693       	92.29744       	92.378204      	91.54305       	92.01656       	91.826866      	90.99353       	91.43452       	91.92337       	91.58139       	92.03669       	92.72936       	92.24008       	92.39311       	92.91175       	92.001335      	92.513664      	92.97768       	92.885704      	93.17055       	92.54398       	92.47416       	93.02809       	92.1318        	92.46381       	92.895355      	92.773926      	92.20101       	92.9567        	92.43473       	91.86732       	92.24615       	91.846596      	91.891655      	92.381485      	91.63449       	92.2086        	92.70114       	91.82848       	92.048416      	92.25436       	91.472725      	92.33986       	92.41348       	91.33739       	91.7756        	91.44441       	91.58541       	92.38963       	92.538445      	91.6328        	92.25337       	91.731186      	91.64908       	90.949295      	90.56703       	90.946785      	91.31946       	91.48668       	90.57307       	90.71147       	90.24141       	90.74128       	90.731125      	90.00147       	90.83459       	90.66414       	90.56044       	91.49536       	91.15423       	90.478874      	91.03492       	90.393715      	90.57637       	91.32637       	90.60314       	90.89027       	91.65336       	90.834366      	91.18917       	91.33993       	89.88636       	90.80314       	91.236084      	90.926025      	92.195755      	91.67182       	91.36302       	91.54689       	90.61312       	90.20943       	
92.21737       	91.13689       	90.58585       	90.59566       	91.31497       	91.30888       	90.97242       	91.34195       	91.54342       	91.01421       	91.944626      	91.7321        	90.89111       	91.908394      	91.35348       	91.14678       	91.975426      	91.995445      	92.31363       	92.57928       	91.9994        	92.54005       	91.9816        	91.9454        	92.147385      	92.513626      	91.97901       	92.50642       	92.93819       	92.27632       	92.47363       	92.18705       	92.76705       	92.5566        	92.798615      	92.34774       	92.44966       	92.52848       	92.66277       	93.38073       	93.00661       	93.412766      	93.20789       	92.755875      	92.571365      	92.952095      	92.54007       	92.55048       	92.47282       	92.29297       	92.78818       	92.45707       	92.43974       	93.17066       	92.723915      	92.78675       	93.25976       	92.808395      	93.03078       	93.02092       	92.41349       	92.550095      	93.072624      	92.759346      	92.39601       	92.7281        	92.426765      	92.13936       	92.96392       	92.47998       	92.704506      	93.25562       	92.83399       	92.7519        	92.44736       	92.235016      	92.522675      	92.9472        	91.78813       	92.10839       	92.68262       	92.0201        	92.36958       	92.66805       	92.52089       	92.45761       	93.159454      	93.103         	93.59342       	93.13178       	92.390945      	93.000786      	92.78919       	92.52018       	93.60186       	93.58515       	92.84915       	93.361         	93.4643        	93.04314       	
91.303185      	91.033455      	90.65358       	91.0797        	91.590836      	92.114         	92.803474      	90.948906      	90.62625       	91.402306      	91.989365      	92.39029       	91.974205      	91.29496       	91.1525        	90.91125       	90.71181       	91.210205      	90.37796       	90.0466        	91.42486       	91.736664      	91.49723       	91.49519       	91.38482       	91.2497        	91.88394       	91.44332       	90.48864       	91.21924       	91.64403       	91.502144      	90.927734      	90.843544      	91.76524       	91.582596      	91.19662       	91.42909       	91.106285      	91.10806       	90.80232       	91.21556       	90.45977       	90.97075       	90.430214      	90.151054      	90.69188       	89.84708       	90.402145      	89.97152       	89.116135      	89.46514       	90.03136       	89.68663       	90.19531       	90.00585       	89.546555      	90.313515      	90.37028       	89.77326       	90.00451       	90.56139       	90.56318       	90.55228       	89.875694      	89.87359       	89.96012       	89.33276       	90.19156       	90.051796      	89.89405       	90.40102       	90.262726      	90.02506       	90.19996       	90.06466       	90.42212       	90.928604      	89.57954       	90.5597        	90.596436      	90.42997       	90.4987        	90.03022       	90.758224      	91.32288       	91.130165      	90.99083       	90.71907       	91.0466        	90.515205      	91.87678       	91.48742       	91.82463       	92.19362       	91.54149       	91.472824      	91.408134      	91.19701       	91.38951       	
94.42587       	94.08241       	94.13878       	94.44227       	94.691635      	94.675934      	93.807236      	91.04322       	90.126144      	91.17375       	93.49593       	94.26925       	93.96765       	94.289795      	93.68798       	93.303955      	94.01269       	94.04152       	93.38427       	93.98955       	94.205376      	93.17554       	93.09704       	93.30538       	93.02698       	92.10936       	91.80929       	93.1845        	93.44836       	92.950226      	93.04887       	93.31283       	92.13006       	92.722374      	93.06157       	91.882965      	92.35437       	92.383255      	92.16483       	92.87275       	91.225174      	91.89171       	92.90026       	92.4856        	92.04587       	92.9295        	91.04194       	89.53868       	90.13152       	92.7262        	92.4598        	92.07724       	92.11975       	92.34847       	91.58089       	91.42436       	91.7952        	91.24285       	91.668         	93.116585      	92.212555      	91.87013       	92.7779        	91.8715        	92.48709       	92.93544       	92.678276      	92.68635       	92.89625       	92.10071       	92.404945      	93.16618       	92.47606       	93.230354      	93.715416      	92.92692       	93.50015       	93.142334      	92.66641       	94.16614       	92.75782       	92.47525       	93.30342       	93.78305       	93.30354       	93.86091       	92.87592       	92.91605       	93.63466       	93.05232       	93.317276      	93.869354      	93.06588       	93.4222        	93.76559       	93.55123       	93.5483        	94.45246       	93.39948       	93.84349       	
91.008415      	90.48338       	90.65703       	91.03072       	91.52504       	91.9372        	91.452675      	89.41591       	87.211716      	88.146904      	89.87731       	91.97008       	91.92313       	92.17665       	91.50008       	91.6652        	91.591354      	91.625336      	91.768         	91.8941        	91.90352       	91.41237       	91.61168       	91.58293       	92.18343       	91.82972       	91.05428       	91.72493       	91.8969        	91.46493       	91.16716       	91.13431       	91.659096      	91.62318       	90.13783       	90.90563       	90.70761       	91.10627       	91.75755       	92.78582       	90.79858       	90.017044      	92.496445      	92.362144      	92.39072       	92.853355      	92.26252       	89.118034      	89.72442       	92.346275      	91.71497       	92.3678        	91.76221       	91.60987       	92.04103       	92.0059        	92.517166      	92.64659       	92.10799       	92.22559       	91.79705       	92.507034      	92.749756      	92.92106       	92.33355       	92.087296      	92.51808       	91.54581       	92.19246       	92.60079       	90.55767       	91.54305       	91.93367       	91.08586       	91.82743       	91.26631       	91.02819       	92.063965      	92.33156       	91.993355      	92.78048       	91.970406      	91.76228       	92.53515       	92.21635       	92.88005       	93.52953       	92.608116      	92.971436      	92.73347       	93.053795      	93.63277       	93.39338       	92.98894       	91.782486      	92.39937       	93.198105      	94.351685      	92.81567       	92.609955      	
91.50748       	91.378006      	91.2504        	91.360664      	91.59268       	92.457016      	92.79029       	91.02874       	89.5653        	88.81096       	90.70894       	92.32068       	91.92736       	91.40495       	91.73824       	91.734695      	91.73759       	91.838776      	91.84394       	92.30343       	92.15845       	91.42813       	92.31107       	92.57418       	91.80032       	92.365585      	92.71573       	91.848885      	91.43396       	92.15892       	91.63644       	91.727974      	92.22206       	91.51777       	91.40797       	91.112915      	90.80738       	91.72458       	91.24157       	91.80389       	92.034996      	90.98746       	90.84693       	91.64914       	91.653595      	91.38806       	91.81523       	91.87118       	92.26794       	92.0061        	92.15378       	92.07404       	91.872665      	91.762         	91.5668        	91.55812       	92.23975       	92.00262       	92.12393       	92.46451       	92.22339       	92.81908       	92.58496       	92.044785      	92.06417       	93.21748       	92.665596      	92.6383        	92.99157       	93.21423       	93.43848       	93.49979       	93.42784       	93.129105      	93.78791       	93.416145      	94.09529       	94.31862       	93.35704       	93.64393       	93.34958       	92.96573       	93.3855        	93.752426      	93.71997       	94.032974      	93.70594       	93.65447       	93.8796        	93.983345      	94.16607       	94.16748       	94.41167       	94.549545      	94.75741       	94.608765      	94.61902       	94.8153        	95.34203       	95.49386       	
