# www.neaspec.com
# Scan:	 	Whitelight Imaging
# Project:	 	20251007_PS
# Description:	 	
# Date:	 	10/07/2025 16:39:17
# Scanner Center Position (X, Y):	[µm]	49.66	48.17	 
# Rotation:	[°]	0	 	 
# Scan Area (X, Y, Z):	[µm]	5.000	5.000	0.000
# Pixel Area (X, Y, Z):	[px]	100	100	1
# Interferometer Center/Distance:	[µm]	548.634	0.000	 
# Averaging:	 	1	 	 
# Integration time:	[ms]	5	 	 
# Wavenumber Scaling:	 	1.000000	 	 
# Laser Source:	 	4.5-15 µm nano-FTIR laser
# Detector:	 	R
# Target Wavelength:	[µm]	6.002	 	 
# Demodulation Mode:	 	Fourier
# Tip Frequency:	[Hz]	238,800.109	 	 
# Tip Amplitude:	[mV]	13.000	 	 
# Tapping Amplitude:	[nm]	69.706	 	 
# Modulation Frequency:	[Hz]	0.000	 	 
# Modulation Amplitude:	[mV]	0.000	 	 
# Modulation Offset:	[mV]	0.000	 	 
# Setpoint:	[%]	79.75	 	 
# Regulator (P, I, D):	 	4.206850	8.625812	1.000000
# Tip Potential:	[mV]	0.000	 	 
# M1A Scaling:	[nm/V]	0.426	 	 
# M1A Cantilever Factor:	 	1,000	 	 
# Q-Factor:	 	452.3	 	 
# Version:	 	2.1.11536.0
92.6929        	93.946815      	93.38374       	93.58399       	94.34037       	93.02433       	93.9836        	94.34056       	94.37454       	94.93906       	94.96821       	93.96689       	92.705414      	93.37374       	94.29359       	94.19413       	93.74638       	93.068184      	93.93718       	94.130844      	93.112946      	95.22717       	95.31461       	94.582695      	94.18465       	93.854706      	93.76419       	94.143684      	94.64664       	93.98158       	94.38224       	94.28895       	94.1329        	94.748985      	93.78956       	94.09573       	92.34595       	93.57512       	93.47909       	94.39592       	94.2566        	94.52788       	94.53802       	94.236626      	94.51549       	94.23073       	94.15954       	94.497055      	93.94442       	93.838104      	94.30559       	94.27371       	94.41252       	94.82422       	94.177505      	94.52032       	93.95768       	94.04528       	93.29007       	93.334015      	92.84716       	93.44926       	93.72086       	93.84932       	94.29461       	94.6779        	94.27885       	94.21357       	94.027664      	94.11856       	94.887215      	94.13298       	92.28113       	91.13441       	92.87032       	93.0253        	93.765366      	92.98199       	92.877914      	93.90727       	93.50643       	92.7107        	93.718056      	92.55932       	92.48073       	93.40649       	92.40213       	92.95409       	93.208755      	92.337814      	92.952194      	93.68204       	93.239624      	93.69837       	92.831245      	93.15655       	93.95512       	94.221794      	93.8376        	93.75464       	
93.019684      	93.46521       	93.988686      	92.34586       	92.53658       	92.99106       	93.042534      	92.64963       	93.39096       	93.155876      	93.73715       	91.60713       	89.72815       	89.23477       	90.82694       	92.5759        	93.035965      	92.38989       	91.92801       	93.16609       	92.889435      	92.538284      	92.923164      	92.518906      	92.63637       	92.6183        	92.687614      	93.017975      	93.55073       	93.113754      	93.38166       	93.3494        	93.35096       	93.68347       	93.062294      	92.687836      	93.080795      	93.680176      	93.57791       	93.48671       	94.50358       	93.447556      	94.101326      	93.64027       	92.39303       	93.17537       	93.13989       	93.26515       	93.59582       	93.42673       	93.5498        	94.095566      	94.17547       	94.08253       	93.61552       	94.11138       	93.53725       	93.501884      	93.16318       	92.8497        	93.56697       	92.374146      	92.2015        	93.30788       	92.99635       	92.83203       	93.422935      	92.15995       	92.45926       	93.02562       	93.224396      	93.232056      	92.9337        	93.21101       	93.06947       	93.04643       	93.06823       	93.24181       	92.15241       	92.8701        	93.24802       	93.03807       	92.43584       	92.94231       	92.9235        	93.19908       	92.933         	92.87698       	92.529755      	92.53148       	90.88818       	91.70109       	92.69434       	91.631485      	89.11862       	91.74345       	92.52698       	91.81706       	91.005356      	91.46935       	
92.20536       	91.65878       	92.30663       	92.01463       	91.64906       	92.39653       	92.31157       	92.30717       	93.279945      	92.94693       	92.47364       	92.61964       	89.667046      	87.979294      	90.543304      	92.48669       	92.55892       	92.72745       	92.47481       	92.40109       	92.35432       	91.7626        	91.45598       	92.25652       	91.26325       	91.893684      	92.69286       	92.24422       	92.118484      	92.16582       	91.652695      	91.635185      	91.50129       	91.44445       	92.11839       	92.42182       	92.09052       	92.32507       	92.64564       	92.5822        	92.70478       	93.813705      	92.4732        	92.22053       	92.49621       	91.73073       	92.852         	92.56022       	92.78394       	93.081215      	92.53438       	92.94915       	93.22269       	92.09253       	91.24915       	92.2878        	91.71989       	92.13587       	91.95885       	92.14022       	92.44999       	92.158356      	92.13257       	93.19702       	93.86364       	93.482475      	93.47228       	93.237076      	92.94997       	93.93366       	93.42655       	93.19955       	93.46021       	92.97606       	92.966034      	92.37015       	93.22327       	93.03789       	92.95745       	92.53997       	92.59421       	93.22435       	92.73787       	92.48988       	92.322235      	92.49084       	92.71444       	93.31095       	92.92439       	92.831856      	93.52464       	93.37357       	93.92538       	94.1226        	90.91177       	92.252426      	93.94612       	93.4379        	92.73833       	92.70801       	
93.12279       	93.475174      	93.36573       	91.77894       	91.17186       	93.43014       	93.33979       	92.70944       	92.85599       	92.79517       	92.22969       	93.00141       	92.55688       	91.11813       	92.0244        	93.33117       	92.677155      	92.64396       	92.57582       	92.08204       	92.15206       	91.95349       	92.293144      	92.67662       	92.26446       	92.08067       	92.885086      	92.90442       	93.29848       	93.97742       	93.33127       	92.98099       	93.288765      	93.29772       	93.0723        	93.428764      	93.19789       	93.420746      	93.41662       	93.531364      	94.183586      	93.933365      	93.1612        	93.631516      	94.69697       	93.51964       	93.65563       	93.62758       	93.10727       	93.46524       	93.78317       	93.63347       	93.2697        	93.462105      	93.20789       	92.91535       	93.81267       	93.67717       	93.36755       	92.90099       	93.1755        	93.02452       	93.09544       	93.176155      	93.05143       	92.94074       	93.227646      	93.30713       	92.98124       	93.26071       	93.32734       	93.44459       	93.329346      	92.80387       	92.54802       	92.12001       	92.37207       	92.65316       	92.47429       	92.46951       	92.892334      	92.32629       	92.12647       	92.161865      	91.81789       	91.736565      	92.18771       	91.81233       	92.22302       	92.4619        	92.556465      	92.67363       	92.25298       	92.30164       	92.98774       	93.14973       	93.07398       	93.05103       	93.395004      	93.41904       	
93.5269        	93.59558       	93.20665       	90.79069       	88.98996       	91.09396       	93.887436      	93.430374      	93.28031       	93.47004       	93.162895      	94.01758       	94.379814      	93.7509        	94.43857       	94.02181       	91.91667       	93.09428       	93.554474      	92.39395       	93.34363       	93.468185      	92.79772       	93.34809       	92.98664       	92.70179       	92.76139       	92.433975      	92.3828        	92.67439       	92.05956       	91.90861       	92.84635       	92.2744        	91.86769       	92.1687        	91.16017       	92.12573       	91.74095       	91.623085      	92.39308       	92.769485      	90.99435       	92.98983       	92.71192       	91.99815       	92.88301       	92.04079       	91.434204      	93.4102        	92.792274      	92.90318       	93.211494      	92.88193       	92.99278       	93.096565      	92.33614       	92.36867       	93.606926      	92.81885       	92.00093       	92.85442       	92.723404      	91.993195      	93.39543       	92.66666       	92.72161       	92.73124       	93.21265       	92.70207       	92.90663       	92.48398       	92.260635      	93.29222       	92.36065       	92.675735      	92.955826      	92.892494      	93.87159       	93.94499       	93.50734       	93.52413       	93.814575      	93.8423        	93.94764       	93.55364       	93.43893       	93.519356      	93.26977       	93.15356       	93.88915       	93.50992       	93.12779       	93.28682       	93.715614      	93.170235      	92.965256      	93.61286       	93.76835       	94.32519       	
92.40636       	92.4123        	92.16948       	89.5116        	88.60649       	90.18335       	91.52023       	92.28315       	92.31645       	92.13484       	92.192474      	91.61949       	92.0916        	92.21407       	92.62713       	92.53288       	92.67326       	92.960205      	92.761734      	92.20337       	92.58869       	92.86956       	93.28186       	92.95592       	92.944786      	93.057526      	92.377304      	92.41891       	92.75969       	92.96336       	92.71693       	92.61388       	93.89522       	93.69412       	93.271286      	92.88077       	92.99885       	93.344574      	92.96611       	93.272995      	92.871704      	93.171455      	93.6021        	93.54988       	92.75171       	93.031456      	92.60844       	92.477875      	93.38939       	93.08214       	92.959076      	93.56331       	93.228935      	93.7605        	94.414314      	93.402664      	90.56597       	90.409546      	92.38273       	92.90609       	93.35111       	93.109         	92.94392       	93.669136      	93.44254       	93.285194      	93.16472       	93.141205      	92.52727       	93.64361       	92.9349        	92.50699       	92.84142       	92.83945       	92.66804       	92.7484        	93.26372       	92.58207       	91.65196       	93.14729       	93.24911       	93.47497       	93.25963       	92.96886       	93.37231       	93.41478       	94.13388       	94.0297        	92.91928       	93.131294      	93.22115       	93.0981        	93.06975       	93.38033       	93.56971       	93.72082       	94.31733       	94.292206      	93.86905       	93.72026       	
92.91824       	93.18987       	93.21456       	92.2235        	92.83591       	92.967804      	93.48089       	94.2703        	93.272514      	93.23351       	93.725044      	93.77832       	93.82968       	93.90184       	94.056564      	94.00936       	94.218956      	93.642685      	94.06896       	93.66529       	93.80062       	93.537506      	94.28625       	91.447075      	89.52417       	92.27614       	93.6716        	93.603584      	93.29846       	93.68902       	93.4954        	93.54488       	94.072395      	93.75757       	93.30379       	93.70194       	93.57121       	93.65297       	93.69146       	92.79998       	93.835976      	93.77673       	93.83353       	93.86303       	93.90628       	93.764885      	94.12183       	94.23815       	93.47758       	93.221436      	93.4732        	93.40382       	93.950806      	94.092514      	94.00816       	92.60784       	89.76726       	88.1357        	90.43415       	92.61476       	93.263016      	93.28557       	92.94836       	92.76867       	93.80033       	92.48535       	92.47294       	93.39701       	92.23848       	92.2602        	92.174355      	91.28439       	92.25178       	92.879486      	91.81578       	92.34151       	92.9169        	92.65434       	92.564156      	92.66905       	92.11666       	92.89681       	91.94058       	92.2921        	92.68706       	91.91631       	92.3013        	92.705124      	92.54208       	93.051704      	92.37346       	92.222626      	92.19154       	92.737076      	92.19655       	91.738235      	91.886604      	92.171646      	92.3125        	92.038         	
93.26279       	93.03907       	93.80427       	94.246994      	94.8723        	93.29233       	94.11951       	94.03254       	93.72548       	93.29949       	93.88026       	93.16591       	93.04688       	92.820854      	93.37831       	93.18758       	93.7515        	93.334175      	93.11468       	93.5915        	93.24517       	93.39281       	93.42664       	91.20605       	90.72937       	92.71184       	94.12316       	93.98351       	93.9794        	91.606285      	91.45442       	93.10683       	93.55135       	93.00672       	93.965034      	93.07931       	93.415276      	93.74761       	93.6355        	92.35591       	92.11575       	93.61046       	93.8795        	93.92708       	92.846756      	92.96386       	93.9612        	93.50602       	94.00163       	93.53667       	93.2138        	93.97995       	93.45939       	93.585655      	94.04295       	93.57743       	91.128296      	90.57298       	91.37006       	92.52519       	93.559906      	93.09977       	93.18999       	93.74976       	93.313835      	94.04587       	93.533394      	93.23864       	93.688675      	93.433975      	92.710815      	93.52498       	92.81766       	92.62222       	93.05184       	93.07943       	92.81331       	94.26401       	93.675644      	94.05525       	93.71854       	93.34236       	93.78111       	93.9246        	92.70402       	92.92716       	92.39345       	92.84119       	93.09004       	93.150055      	93.18745       	93.42174       	93.08638       	93.12232       	93.72693       	93.25386       	92.84675       	93.08709       	93.05434       	93.38348       	
91.60595       	93.15236       	93.234955      	93.57104       	94.250656      	93.214836      	93.139206      	92.91743       	92.48234       	93.05712       	92.6763        	92.93515       	92.89136       	93.236664      	92.68505       	92.6416        	92.5247        	93.02353       	93.04146       	92.28039       	92.077866      	92.67852       	92.09566       	92.31998       	91.8399        	92.139984      	92.05946       	92.328354      	92.13593       	91.18049       	91.40035       	92.16521       	91.91515       	90.402885      	91.95213       	92.015366      	92.38351       	92.03307       	92.43898       	89.77539       	89.23975       	91.68584       	91.757935      	91.09097       	91.56542       	91.81021       	91.28698       	90.18038       	91.912834      	92.2116        	91.76033       	91.521355      	91.370926      	91.388504      	92.03438       	92.48736       	92.384575      	92.12685       	92.51463       	92.06413       	92.446815      	92.59223       	91.549835      	92.41377       	91.95108       	90.09089       	91.96355       	91.0186        	91.0747        	91.98176       	91.48629       	91.4863        	91.21562       	90.95577       	91.780876      	92.02375       	91.602486      	91.33052       	91.39434       	91.67764       	92.178024      	91.5128        	90.83666       	91.38343       	93.15592       	92.88715       	93.029945      	92.980804      	93.11926       	92.37727       	92.743324      	93.03932       	93.430435      	93.92685       	92.96917       	93.2681        	93.77823       	94.23524       	93.99379       	93.461685      	
94.55146       	93.84871       	93.45862       	94.114296      	93.76689       	93.706245      	93.95482       	93.93468       	93.73201       	93.85578       	93.85487       	94.25899       	94.958206      	94.36422       	94.75675       	93.98006       	95.01497       	94.86701       	94.020805      	94.35843       	94.231766      	94.28067       	94.56112       	94.82211       	94.93059       	95.220695      	94.42604       	94.73217       	94.76048       	93.85119       	94.1869        	93.76509       	93.182945      	93.877304      	93.02098       	93.03951       	93.87182       	93.413506      	93.383835      	94.01954       	93.65636       	93.5859        	93.46528       	93.18599       	92.97994       	93.52409       	93.317215      	93.25688       	92.832184      	92.8358        	92.76073       	92.60812       	92.82069       	92.53612       	92.85084       	92.93217       	93.11302       	92.83797       	92.95224       	92.91907       	93.35157       	93.23486       	91.91087       	93.793144      	93.29175       	92.90149       	93.60868       	93.17347       	92.93384       	92.963936      	92.556725      	92.914314      	93.37009       	92.73873       	92.74414       	92.92671       	93.19079       	93.64539       	93.62162       	92.958664      	93.04235       	91.718666      	89.31619       	90.334435      	93.2004        	93.622856      	93.503914      	93.06108       	93.51807       	93.507484      	93.327065      	93.612625      	93.291145      	93.47786       	93.315445      	92.077866      	92.171715      	92.81448       	93.12999       	93.22232       	
93.570854      	92.1682        	93.98692       	92.97388       	93.37908       	92.67737       	93.01437       	92.198296      	92.03584       	91.958786      	93.34818       	92.889336      	91.873985      	91.92618       	91.58892       	91.057045      	91.715546      	90.77836       	91.2153        	91.099396      	90.691284      	90.98999       	91.825066      	90.75594       	90.95029       	92.07696       	91.40353       	91.43336       	91.22492       	91.366035      	91.90264       	91.66911       	90.4936        	91.346176      	91.32157       	90.94612       	91.41748       	90.9957        	90.779366      	91.21178       	90.967865      	90.51689       	91.3342        	90.99283       	91.34514       	92.07462       	91.652824      	91.58536       	91.58207       	91.35324       	91.544525      	91.06763       	90.76718       	91.05026       	91.570206      	91.02614       	91.318886      	91.16928       	91.49417       	90.89499       	91.37545       	90.838936      	90.92121       	91.28667       	91.08273       	91.64608       	92.20618       	91.4731        	91.77845       	91.594894      	91.90107       	92.362076      	91.53539       	91.834404      	92.23762       	91.51694       	91.357086      	91.819984      	91.6681        	91.81788       	92.216385      	90.062         	88.51773       	88.12427       	90.770584      	91.80202       	91.82992       	91.57491       	91.87671       	92.37725       	92.06482       	92.20431       	92.827805      	92.65473       	92.7717        	93.474365      	93.41139       	92.98475       	93.08515       	93.34249       	
92.48885       	93.278534      	93.38109       	93.607475      	93.562874      	93.34787       	93.42134       	94.16642       	92.841095      	93.2891        	93.78234       	92.96357       	93.308426      	92.74849       	92.81166       	93.28529       	94.00988       	93.42753       	93.193         	92.54536       	92.79537       	93.45051       	93.01302       	92.50328       	92.91635       	93.053116      	92.35967       	93.08817       	93.12701       	92.67534       	92.934845      	92.72445       	92.49533       	92.76961       	92.44522       	91.92036       	92.53271       	91.87919       	91.38221       	92.47264       	92.317856      	92.12115       	92.84752       	92.146736      	91.285675      	92.387405      	92.34668       	92.32996       	92.35355       	92.764854      	92.55327       	92.39498       	93.050674      	91.92497       	92.045525      	92.11421       	92.3114        	92.2293        	92.41847       	91.83906       	92.01201       	91.39183       	92.094315      	92.01445       	92.34621       	92.30341       	92.72172       	92.30021       	91.51761       	91.70568       	92.090576      	91.51018       	91.64639       	91.62316       	91.71388       	92.01043       	91.95671       	91.480385      	91.57305       	91.38139       	91.855415      	92.36469       	91.93176       	91.77001       	92.14261       	91.88651       	91.84246       	92.06726       	91.72984       	91.839615      	91.34074       	89.98632       	90.82838       	92.6578        	92.81737       	92.34664       	92.52678       	92.7391        	93.00362       	93.0848        	
92.576996      	92.93497       	92.91881       	92.936356      	92.97037       	93.07309       	92.46982       	92.767         	92.604614      	92.65086       	92.12294       	92.67339       	92.32922       	91.64135       	91.9522        	92.1088        	92.21168       	91.92769       	91.879105      	92.11098       	92.43867       	92.66082       	92.8246        	92.77721       	92.73315       	92.72807       	92.30099       	92.9109        	92.55106       	92.767044      	92.88171       	92.48097       	93.02005       	92.01097       	91.847824      	92.763115      	92.93796       	93.15252       	93.66023       	93.59517       	92.49183       	92.19969       	93.04126       	92.77817       	92.81021       	92.99557       	93.80008       	92.839615      	92.55757       	92.95236       	93.49458       	94.129974      	93.18552       	93.19629       	92.85189       	93.719345      	93.534904      	93.12297       	92.64926       	92.660194      	92.949585      	92.39612       	92.70692       	92.354576      	92.74          	93.05066       	92.2601        	91.883         	92.24198       	91.14725       	89.94937       	92.360916      	92.41723       	92.311         	92.95874       	92.49153       	92.453         	92.766495      	92.27332       	92.5092        	93.42765       	94.28337       	93.74435       	93.26191       	93.5655        	93.50308       	93.64117       	93.87723       	93.65939       	94.04992       	92.47951       	89.624664      	89.20271       	92.84335       	93.56677       	93.95398       	93.88325       	93.76893       	93.45793       	93.424675      	
90.540825      	92.59733       	92.340164      	92.129074      	91.89095       	92.56356       	93.15414       	92.195404      	91.47517       	91.883575      	92.731285      	92.63502       	93.29418       	92.78254       	93.01774       	92.42074       	92.82247       	92.81496       	93.540535      	93.0193        	93.30087       	93.29572       	93.46546       	93.18482       	92.78153       	93.046844      	93.440216      	92.88411       	93.03779       	93.701996      	92.3958        	92.32945       	92.410126      	92.61254       	92.95236       	93.179         	92.65719       	92.95838       	93.174324      	92.82946       	92.78049       	92.50947       	92.383514      	93.250984      	93.30264       	93.0654        	93.70527       	94.214966      	93.76488       	93.78223       	94.82101       	94.07529       	93.66834       	93.05157       	93.4779        	93.14868       	94.04215       	93.68949       	93.77217       	93.389435      	93.20462       	93.83578       	93.42665       	93.07063       	93.519135      	92.76082       	92.54218       	93.35536       	93.289276      	93.7937        	93.90062       	92.574615      	93.23315       	93.51429       	93.33648       	92.906525      	93.91645       	93.337845      	93.37214       	93.91429       	93.49806       	93.26048       	93.37608       	93.66118       	93.350555      	93.15963       	93.43039       	93.85332       	92.72513       	91.350494      	93.71696       	94.132645      	93.40552       	94.35252       	94.221886      	94.0831        	94.13803       	94.6067        	94.89195       	94.79682       	
92.93071       	92.257645      	92.88583       	92.90544       	92.57613       	92.3964        	93.00479       	93.09786       	93.2628        	93.421394      	94.18027       	94.029915      	93.706314      	94.23692       	93.14237       	94.264         	93.2023        	94.05702       	93.550606      	93.67521       	94.20052       	93.14342       	93.33648       	93.21324       	93.608315      	93.798256      	93.49662       	93.42456       	93.69934       	93.44847       	93.81306       	94.466995      	94.762665      	93.92782       	93.83904       	94.03357       	94.72112       	94.29058       	94.55905       	94.686104      	94.2326        	94.017365      	94.21205       	94.123726      	93.92822       	94.00274       	92.61348       	93.92559       	94.38518       	92.736015      	91.98434       	93.66675       	93.10852       	94.39788       	93.79577       	93.07347       	93.8061        	93.470215      	93.398         	94.188614      	93.84354       	93.68565       	94.03901       	93.493195      	93.364494      	94.00648       	93.49944       	93.55938       	94.282425      	93.28642       	93.87627       	93.48054       	93.22474       	93.283966      	94.47684       	94.09074       	93.614044      	94.188774      	93.53071       	93.4861        	93.82812       	93.152176      	93.8777        	92.04312       	92.939606      	93.79572       	93.5085        	94.48681       	93.67032       	91.62233       	92.716064      	94.312706      	93.89676       	94.14488       	94.476974      	93.76559       	92.245125      	91.894585      	94.72442       	94.76991       	
93.46544       	93.44001       	93.47895       	93.89837       	93.61451       	94.02312       	94.26169       	94.377716      	93.90201       	94.40568       	94.12603       	92.872314      	91.67835       	94.253944      	92.73958       	92.171074      	93.629036      	93.725006      	93.167046      	93.37885       	92.99871       	93.04573       	92.96962       	93.45021       	93.28976       	93.3243        	93.521576      	93.23706       	93.4065        	93.609116      	93.507454      	93.1978        	93.803185      	93.737305      	93.95059       	93.248085      	93.60213       	93.16734       	93.99106       	93.71439       	94.08444       	94.237785      	93.99842       	93.63136       	93.07523       	93.28631       	93.735794      	93.68808       	93.79351       	92.63394       	90.57732       	91.362305      	93.232315      	93.29979       	92.22667       	92.13333       	93.383545      	93.22679       	92.9854        	93.40728       	93.07685       	93.057976      	92.93886       	93.078705      	93.42662       	92.92105       	92.74971       	93.25024       	93.19352       	93.32356       	93.51008       	93.61285       	93.08281       	92.88089       	93.288605      	92.89003       	92.92895       	93.32033       	92.99199       	92.621254      	93.19827       	93.20829       	92.8363        	93.468056      	92.84505       	93.0738        	93.32274       	92.90113       	93.11942       	93.683426      	93.46642       	93.30132       	93.15318       	93.00245       	93.14664       	93.386         	92.15966       	91.66759       	92.608345      	92.952446      	
92.24727       	92.19706       	93.02696       	91.98229       	92.92631       	93.10137       	91.74155       	90.15325       	92.365585      	92.53357       	92.52575       	90.70454       	89.61004       	92.5936        	92.86043       	92.64441       	92.62374       	92.73441       	92.217636      	93.20195       	92.64153       	92.969894      	92.929565      	91.61056       	91.407845      	92.354485      	92.78228       	92.5171        	92.39232       	92.78381       	92.7806        	93.27629       	92.7364        	93.162704      	92.0673        	91.92931       	93.312065      	93.331665      	93.00522       	92.962234      	92.90933       	92.71907       	92.75986       	92.28674       	92.89343       	92.811966      	92.49614       	92.58688       	92.56094       	92.967316      	91.69197       	92.371704      	92.615105      	92.55285       	92.11479       	92.48214       	92.30588       	91.85484       	91.990364      	92.06686       	92.49715       	92.69179       	92.76789       	91.57708       	92.29237       	93.16336       	92.48791       	92.980255      	92.26948       	92.05946       	92.21138       	92.492836      	91.96895       	92.24496       	92.25945       	92.4595        	92.2682        	92.86351       	92.308426      	92.284164      	91.86152       	92.2034        	92.38374       	92.310905      	92.4224        	92.67346       	92.779366      	93.3794        	93.23975       	92.79759       	92.4264        	91.87997       	91.928764      	92.49124       	92.44039       	92.900276      	93.12048       	92.621414      	92.5998        	92.32982       	
93.79644       	94.32244       	94.01005       	94.739365      	94.05376       	93.81401       	94.46019       	92.97417       	93.72093       	94.19046       	94.10945       	93.737656      	93.29744       	94.3614        	94.13768       	93.48559       	93.480095      	93.85938       	93.90524       	93.804375      	94.84297       	94.261734      	94.00973       	94.17602       	94.03918       	94.121414      	94.023155      	93.63121       	93.53197       	94.53262       	93.853165      	93.25008       	94.40651       	91.69637       	89.96208       	89.49304       	91.30733       	93.4501        	93.515335      	93.07145       	92.85412       	93.11646       	92.79811       	93.247574      	93.24256       	93.03724       	93.26163       	93.50593       	92.938         	92.920586      	93.52567       	93.64273       	93.544304      	93.81385       	93.114395      	92.80969       	93.25473       	93.2357        	93.04586       	93.395546      	92.51633       	93.03162       	93.59737       	92.99134       	93.277534      	92.86344       	91.64471       	92.40054       	93.27689       	92.47328       	93.7056        	93.64442       	92.61844       	93.81569       	93.358315      	93.121284      	94.1219        	93.76032       	93.669815      	93.834946      	93.29021       	93.59815       	93.4985        	92.98064       	92.81019       	93.083824      	93.10179       	93.35827       	93.409065      	92.566635      	93.3918        	93.57149       	93.50898       	93.75914       	94.20195       	93.96738       	93.865105      	93.9394        	93.72914       	93.34423       	
92.30373       	92.46713       	93.73913       	92.66496       	92.05214       	93.702324      	93.61376       	93.32674       	93.247505      	93.791466      	93.316574      	93.41102       	93.13075       	92.71349       	93.58868       	93.26051       	92.88806       	93.39857       	93.20516       	92.90923       	93.77507       	92.99834       	93.69133       	93.00679       	92.94083       	93.04228       	93.98808       	93.22216       	93.201004      	94.49562       	93.55633       	93.97175       	93.994736      	91.346886      	89.449135      	89.95834       	91.070885      	93.68979       	92.994804      	92.99461       	93.363686      	93.16942       	92.976326      	93.077644      	93.25396       	92.17435       	92.384766      	92.40785       	91.98483       	92.63996       	92.72412       	92.94621       	93.34185       	91.9983        	92.22389       	92.81994       	93.628174      	93.26029       	93.044914      	92.66804       	93.08235       	92.81263       	93.07381       	92.86475       	93.48473       	92.69659       	92.47042       	92.9646        	92.54175       	92.75998       	92.62196       	93.32401       	93.5362        	93.65915       	93.74806       	93.050446      	92.80254       	93.186714      	92.65355       	93.124344      	92.54703       	91.60133       	93.27157       	92.657425      	91.97497       	90.308334      	92.3336        	92.57841       	92.68452       	93.1454        	91.85182       	93.01311       	93.39006       	93.52646       	93.78214       	93.73389       	93.63075       	93.403824      	93.18482       	93.135185      	
93.80368       	94.4165        	93.81432       	93.14701       	93.74803       	93.10303       	92.63683       	92.92268       	93.37204       	92.51905       	93.18131       	93.011246      	92.99598       	93.199425      	92.99496       	93.35543       	93.37953       	92.844086      	92.58345       	92.20252       	93.02792       	93.2859        	93.48326       	91.145065      	91.146194      	93.4998        	92.43812       	92.3391        	92.24091       	91.94935       	92.663315      	92.153076      	91.66133       	91.57265       	90.83271       	90.57513       	92.83947       	93.30523       	92.41991       	92.112434      	92.605995      	92.5222        	92.62334       	92.8934        	92.51525       	92.624725      	92.203545      	91.94411       	92.05549       	91.76614       	91.61848       	91.970665      	92.191986      	90.94023       	91.588875      	92.45739       	92.09842       	91.63162       	91.22669       	91.218254      	91.507675      	91.78227       	91.85635       	91.40533       	91.8061        	91.54447       	91.92953       	91.7963        	92.220085      	92.61221       	92.42762       	92.551704      	91.7384        	93.10111       	92.69636       	92.85772       	92.89547       	92.35505       	92.30102       	92.7336        	91.63384       	92.474724      	93.17923       	92.66377       	92.611404      	92.65405       	92.77386       	92.67243       	93.32508       	92.38594       	92.97016       	92.83902       	92.72799       	92.98097       	93.32521       	93.22674       	93.16528       	93.84935       	93.806076      	93.35726       	
93.59652       	93.0391        	92.68863       	93.70344       	93.27422       	93.84877       	94.477         	92.73215       	93.413704      	93.80453       	93.14733       	93.86609       	93.4672        	93.8372        	93.974236      	94.08263       	93.7775        	94.447334      	94.57933       	93.66478       	94.11205       	93.8283        	93.65578       	94.258255      	94.0232        	92.93819       	92.514755      	94.08288       	94.646965      	94.001114      	93.15942       	93.817955      	93.25508       	93.20222       	94.1038        	93.87194       	94.113335      	93.73863       	93.270004      	93.6505        	93.940414      	93.82445       	93.740486      	94.4349        	93.715         	94.38008       	94.121635      	93.384674      	94.12288       	94.765495      	93.548676      	93.7754        	94.50589       	94.02287       	94.292046      	94.077225      	93.48229       	93.031586      	93.92766       	93.45182       	93.79567       	93.80241       	93.43351       	93.535835      	93.385376      	93.80526       	93.23335       	94.07637       	93.521324      	93.6604        	93.63007       	90.894844      	89.22382       	90.434654      	93.02775       	93.14133       	93.17644       	92.93588       	93.146355      	93.14432       	93.38254       	94.03451       	93.7751        	93.61512       	93.435165      	93.025276      	93.33106       	93.41797       	93.10152       	92.749596      	92.89735       	93.309135      	92.960175      	92.53592       	93.32758       	93.337234      	93.17354       	93.27007       	93.326614      	93.35369       	
93.555824      	94.13022       	94.21005       	93.76822       	95.04597       	93.99669       	94.83819       	94.79681       	93.54247       	94.46895       	94.090195      	94.23359       	94.50379       	94.52601       	93.01634       	94.5483        	94.12798       	93.69625       	93.66629       	93.69227       	93.13333       	93.865814      	93.43153       	92.922844      	94.0549        	93.34803       	92.54827       	93.28882       	93.38355       	93.449394      	93.95316       	93.029175      	93.301605      	93.276436      	92.969734      	93.48405       	94.23013       	93.452995      	94.094696      	92.89575       	93.14824       	93.7036        	92.846115      	93.35526       	93.143524      	93.23302       	93.71871       	93.95918       	93.7951        	94.154816      	94.52916       	93.14124       	93.7135        	94.23858       	93.62934       	94.46718       	94.13484       	93.34683       	94.9842        	94.53952       	93.17054       	93.912285      	93.624626      	93.65365       	94.41246       	93.88656       	94.57463       	94.61065       	94.30924       	93.76726       	94.40953       	90.61148       	89.42663       	90.33754       	92.37575       	93.73254       	93.316216      	92.153244      	93.47031       	93.36685       	93.28934       	93.48245       	92.89157       	92.78106       	93.53024       	93.3239        	92.95878       	93.54217       	93.382164      	93.13314       	93.1324        	93.61992       	93.28088       	93.148674      	93.37594       	93.6633        	94.12529       	94.25804       	94.18185       	94.37463       	
93.95299       	93.275276      	93.98614       	93.46851       	93.137085      	93.12892       	93.59683       	92.769         	93.084114      	93.329216      	92.326645      	93.20108       	93.12687       	92.54521       	93.06189       	92.75785       	92.1816        	92.57064       	92.76332       	92.27663       	93.01445       	92.41354       	92.6162        	92.94322       	92.17134       	92.76907       	92.47579       	91.99059       	92.40398       	92.74401       	91.79773       	92.55728       	92.767715      	92.83602       	92.743034      	92.55819       	92.70021       	93.125496      	92.93045       	90.94994       	93.01681       	93.16959       	92.490974      	92.38976       	89.57005       	89.26868       	92.84881       	92.8733        	93.011925      	93.37153       	93.067924      	93.004684      	93.436676      	92.04228       	92.52294       	92.87194       	91.69764       	91.93678       	92.83359       	92.12902       	92.990105      	93.23156       	92.25893       	92.66471       	93.084         	92.203384      	93.46323       	93.55162       	92.51928       	93.32544       	93.26311       	90.57018       	89.79377       	90.639786      	92.453804      	93.579765      	93.81608       	92.95656       	93.22792       	92.86385       	92.75525       	93.44279       	92.96993       	91.70495       	93.745834      	92.562485      	93.49332       	94.41455       	91.8414        	92.42219       	94.28488       	93.48417       	93.351105      	92.77325       	93.02408       	93.52742       	94.359146      	94.04024       	93.649155      	93.45582       	
94.54005       	93.87352       	94.47513       	93.53577       	92.737465      	94.25928       	93.84903       	93.48511       	94.18485       	94.11623       	93.50195       	94.15346       	93.71163       	93.65073       	93.66595       	94.03617       	93.96647       	93.564         	93.378105      	93.07121       	93.5057        	92.85379       	93.39594       	93.47297       	93.14442       	93.438385      	93.0405        	93.30261       	93.23296       	93.71252       	93.743324      	93.42193       	94.252426      	93.86039       	93.54548       	93.82276       	93.42852       	93.14147       	93.872025      	93.61684       	94.029205      	94.20295       	92.849495      	93.29268       	90.684845      	89.24775       	91.8769        	92.769684      	92.14483       	93.11634       	92.27665       	90.51769       	92.79032       	92.886894      	91.642494      	92.593216      	92.250435      	91.16851       	91.058846      	92.48397       	92.606255      	92.74531       	92.56845       	92.89389       	93.00734       	92.466354      	92.48511       	93.30158       	93.104996      	93.142456      	93.39452       	92.70181       	92.31527       	92.87615       	92.32209       	93.01603       	92.989655      	91.90799       	92.535286      	92.42769       	91.90052       	92.24284       	92.25029       	91.98327       	92.341324      	92.26624       	91.45735       	91.9284        	91.99299       	91.35587       	92.80048       	92.485435      	92.36975       	93.11351       	92.48021       	92.27893       	92.71697       	92.69666       	92.464066      	92.84056       	
92.315025      	92.9843        	92.60392       	92.21725       	92.47234       	91.64133       	92.09512       	92.35009       	92.270874      	91.705795      	92.604164      	92.09916       	91.94809       	92.710205      	91.46614       	91.76051       	92.79647       	92.60018       	92.18088       	93.458496      	92.32057       	92.93709       	93.08145       	92.1931        	93.17876       	92.88272       	92.55781       	92.86804       	92.89342       	92.28358       	92.91138       	93.21264       	92.920975      	93.7854        	92.9849        	93.1696        	93.49904       	93.19673       	92.97391       	93.724205      	93.053055      	93.380424      	93.774765      	92.606445      	93.51832       	93.95954       	92.701996      	93.63189       	93.658646      	93.3866        	91.28609       	90.32427       	92.96489       	94.388985      	93.284676      	93.45283       	94.18871       	91.33581       	89.52042       	92.087326      	92.71495       	93.94894       	94.68989       	93.748         	93.95813       	93.865326      	92.7707        	93.73864       	93.6355        	92.736         	93.826065      	93.292435      	92.385445      	93.20106       	92.95086       	92.398384      	93.1928        	93.08078       	93.14006       	93.4794        	92.388435      	93.20837       	93.06524       	92.64388       	92.533         	93.14821       	92.462944      	91.84531       	92.71439       	91.77294       	92.81717       	93.532845      	93.04537       	93.67699       	92.953384      	93.12425       	93.0328        	93.422165      	93.28805       	92.90348       	
90.14254       	92.3282        	93.66704       	93.63687       	93.660965      	93.922775      	93.80207       	92.39559       	92.821365      	92.746025      	92.33275       	91.93529       	91.80386       	92.69001       	92.43111       	93.05464       	92.552444      	92.99965       	92.78649       	93.65345       	93.45297       	91.80771       	92.41973       	92.86088       	93.00371       	93.17428       	93.21705       	93.28254       	93.48337       	93.566986      	93.66601       	93.5912        	93.134476      	93.856125      	93.58892       	93.44231       	92.3505        	93.23665       	93.45485       	93.07492       	93.2985        	93.606         	93.4484        	93.45924       	94.3811        	93.097565      	93.359726      	94.344765      	93.57934       	93.19177       	92.95528       	91.033775      	92.71783       	93.99364       	93.0242        	93.72374       	93.976006      	92.938034      	91.58911       	92.04236       	93.311874      	93.67174       	94.29127       	93.73074       	94.482254      	94.543526      	93.017876      	93.937386      	93.81388       	94.02388       	94.86099       	93.88869       	93.56094       	93.42541       	93.25514       	93.347015      	94.683136      	93.5927        	93.30684       	92.616005      	92.3795        	93.32638       	93.08836       	92.495605      	93.57821       	92.758965      	92.2815        	93.16834       	93.10682       	92.93804       	93.242874      	93.25279       	92.76021       	93.299324      	93.360146      	92.87606       	93.284904      	93.91812       	94.13946       	93.83479       	
89.61978       	90.97743       	93.35554       	93.95389       	92.86996       	94.07625       	94.107574      	93.06787       	93.459404      	92.837036      	92.130424      	93.071205      	92.579056      	92.50964       	93.95633       	92.60765       	92.88566       	93.74008       	92.14115       	92.691986      	93.31911       	92.3444        	93.22885       	92.896835      	92.95961       	92.907135      	92.69654       	92.03943       	93.23767       	92.81989       	92.39128       	93.19488       	92.75013       	92.23412       	93.95752       	93.353935      	93.17272       	93.025185      	92.33394       	92.94791       	93.32535       	93.1512        	92.97848       	93.38309       	93.73453       	93.399704      	93.63831       	92.87096       	92.83487       	93.2365        	93.402306      	93.85213       	93.9296        	93.57769       	93.852615      	94.20604       	93.270706      	93.04219       	93.30763       	92.8713        	92.97216       	93.496704      	92.54414       	93.28985       	93.475464      	92.32236       	91.66127       	92.00075       	92.5974        	92.80099       	92.91405       	92.437546      	93.379875      	92.75602       	92.658745      	93.65636       	93.00624       	92.34795       	93.24877       	92.028046      	90.73719       	92.398315      	92.23011       	92.14008       	92.98479       	91.81143       	92.94959       	92.79156       	91.84449       	93.438324      	93.331535      	92.21676       	93.06192       	92.656         	92.37511       	93.15934       	93.511406      	92.860794      	92.32161       	92.67232       	
94.58288       	94.04959       	95.11336       	93.64466       	94.42274       	94.08554       	90.996086      	92.69367       	93.69954       	93.05079       	93.40605       	93.36069       	92.324585      	92.62737       	92.57878       	91.93938       	92.606255      	92.51974       	92.12652       	92.99437       	92.186386      	91.74439       	93.19766       	92.87116       	92.91014       	93.271774      	92.77662       	92.20863       	93.40878       	92.64587       	92.55412       	92.74959       	92.13966       	92.376816      	91.60269       	91.874344      	92.27217       	91.98124       	91.201126      	91.70468       	92.07137       	91.817635      	91.74198       	92.05189       	91.94386       	91.97246       	91.955574      	92.0693        	92.46125       	92.20326       	92.52254       	93.2015        	92.38456       	92.167564      	92.233406      	91.80847       	92.00813       	92.40345       	92.688835      	92.87778       	93.52445       	92.262314      	92.53991       	92.30709       	92.004364      	92.29698       	92.23568       	92.043564      	93.08062       	92.09667       	91.692986      	91.88435       	91.628944      	91.708824      	92.1833        	92.328354      	92.34685       	92.34136       	91.70356       	91.49718       	92.24395       	92.07914       	92.64263       	92.54758       	92.33499       	92.98827       	92.4458        	91.91332       	92.34493       	92.16643       	92.79007       	92.60135       	92.837326      	92.682785      	93.09439       	91.94331       	92.21497       	92.30774       	92.73246       	93.04489       	
92.363235      	93.9598        	93.46611       	93.613365      	93.38069       	93.16191       	93.51193       	93.63798       	93.53444       	94.243904      	93.95614       	94.39611       	94.01236       	93.33143       	93.53267       	93.897575      	93.07732       	93.21666       	93.74279       	92.735756      	94.18372       	92.67538       	90.07455       	93.607666      	93.85945       	93.47088       	93.2232        	92.91253       	93.07095       	93.60814       	92.57155       	93.593025      	93.661705      	92.635376      	93.10409       	93.04302       	91.54415       	93.1637        	92.937325      	92.025406      	93.18025       	90.65709       	92.02398       	92.719894      	92.914116      	92.74385       	92.14064       	92.94908       	92.70338       	92.63846       	92.57193       	92.75258       	92.86457       	93.24902       	92.75049       	92.8203        	92.41777       	93.107544      	92.66394       	92.97484       	92.9823        	92.94355       	92.51478       	92.94957       	92.80428       	92.40199       	92.68429       	93.48087       	93.04142       	93.73742       	92.83116       	92.64549       	93.41057       	93.24634       	93.13652       	93.51668       	93.076385      	93.73194       	93.96734       	93.23626       	93.75777       	93.978775      	93.66027       	93.83766       	93.6725        	92.66552       	92.273964      	93.10353       	92.898926      	92.289276      	93.41087       	91.98107       	93.156845      	93.37784       	93.16642       	93.23127       	94.07159       	94.05957       	93.59476       	93.41488       	
94.005806      	93.65821       	93.950554      	95.48559       	94.087234      	94.60109       	95.11308       	93.52375       	94.6792        	94.85058       	93.480705      	94.9673        	94.74581       	93.61747       	94.35116       	93.45659       	93.91987       	94.50183       	92.679596      	92.68615       	94.76562       	94.40756       	92.02075       	93.9525        	93.25514       	93.36891       	93.34013       	92.50461       	93.865814      	94.02119       	92.79952       	92.02542       	91.63747       	92.72957       	94.02843       	92.99568       	92.33541       	93.0341        	92.553635      	92.72314       	93.889725      	93.21347       	93.42737       	94.00368       	92.89348       	93.476944      	94.22084       	92.92338       	93.26397       	93.873886      	92.96463       	93.46395       	93.25879       	92.515594      	93.362114      	93.08961       	92.61895       	93.64643       	93.119225      	92.085205      	93.02113       	93.00749       	92.20272       	93.37073       	92.50276       	92.91487       	93.56087       	91.75997       	90.05589       	92.68138       	92.876816      	92.7894        	93.5271        	93.29314       	93.53406       	93.185234      	92.205154      	93.28071       	93.27477       	92.63899       	93.02404       	93.25587       	92.85852       	92.981285      	93.222275      	92.426926      	93.5439        	93.41939       	93.06558       	93.4452        	93.68694       	93.04924       	94.25031       	94.026405      	93.16964       	93.0263        	93.52345       	93.28728       	93.45011       	93.477066      	
93.053955      	92.902145      	92.32589       	91.72393       	92.268936      	93.13866       	93.66488       	92.795044      	92.42177       	93.30136       	92.657646      	92.37222       	92.90966       	91.79658       	92.81079       	92.80028       	91.804         	91.94259       	89.36522       	88.79555       	92.59432       	92.66749       	91.7565        	92.75497       	92.7066        	91.98103       	92.016594      	92.26639       	91.618866      	92.30729       	91.927         	89.435074      	90.2776        	91.13748       	91.86105       	91.706505      	91.08906       	91.19965       	92.01831       	91.958534      	91.72562       	91.643326      	91.72607       	91.4401        	91.73901       	91.55781       	91.992874      	91.27877       	91.48443       	91.549065      	91.73483       	91.69589       	91.76244       	91.48999       	92.26728       	92.363976      	91.59574       	91.867355      	91.93697       	91.77231       	91.034424      	91.41891       	90.67311       	90.69146       	91.38609       	91.97519       	92.44901       	91.895515      	91.20503       	91.5945        	92.115974      	92.31109       	92.21264       	90.584236      	91.54942       	92.00874       	91.37818       	91.54271       	92.52214       	92.877426      	91.89362       	92.875496      	92.34551       	92.555855      	92.38378       	92.693085      	92.15804       	93.029434      	93.312744      	92.88954       	92.97965       	93.176445      	93.12244       	93.55519       	93.1989        	92.90707       	93.39442       	93.45474       	93.611374      	93.83443       	
92.042465      	92.21981       	92.00162       	93.30358       	92.80501       	92.92998       	93.71647       	93.43661       	93.46581       	93.89396       	92.90402       	91.3627        	90.928154      	90.19022       	92.2255        	93.63392       	92.63184       	92.83961       	93.13062       	92.90089       	92.1294        	93.333664      	92.113945      	91.88756       	92.62695       	91.83829       	92.48328       	92.2283        	92.35494       	92.78893       	92.80633       	92.87228       	93.34616       	93.31949       	93.07381       	93.087685      	92.61405       	92.519         	92.74887       	91.4603        	92.35158       	93.3217        	91.84238       	92.81311       	92.42425       	92.32457       	93.050156      	92.75766       	92.33658       	92.61356       	92.63631       	93.094086      	93.66752       	93.32353       	93.37972       	93.71681       	92.212685      	92.42247       	93.52787       	92.83379       	92.63623       	92.63485       	92.56958       	92.718765      	92.97749       	91.7497        	92.82635       	92.78122       	92.25647       	93.14493       	92.967316      	92.338776      	93.46237       	93.16155       	92.8353        	93.739555      	92.95716       	93.4994        	93.43018       	93.18979       	93.079506      	92.97923       	91.051025      	93.14739       	93.33131       	93.140434      	93.04925       	92.879395      	92.87359       	93.19538       	93.66825       	93.17302       	93.43969       	93.75921       	92.94315       	94.15922       	93.91276       	93.92305       	93.96008       	94.02876       	
95.190765      	94.87765       	95.20836       	95.06203       	95.37951       	94.73217       	94.667076      	95.05462       	95.14706       	94.857574      	95.34931       	93.03886       	91.25487       	91.55341       	94.333824      	94.78071       	95.22298       	94.55155       	94.39696       	94.62503       	94.274734      	94.426056      	95.33195       	94.74381       	94.233185      	94.74421       	94.241646      	93.56497       	93.6892        	93.40512       	93.627815      	93.503944      	93.969185      	93.77124       	94.36012       	93.779945      	93.5245        	92.12549       	92.438515      	93.10066       	92.77315       	92.830986      	93.49174       	93.50845       	91.57955       	91.38197       	92.563705      	92.01342       	92.279205      	91.9201        	92.24231       	91.73878       	92.448364      	91.56905       	91.6536        	92.20192       	92.495575      	92.850296      	92.54853       	92.96253       	92.78242       	92.29034       	92.6314        	92.89831       	92.55439       	93.06217       	92.797066      	93.14368       	92.762344      	93.025925      	93.19804       	93.73832       	93.52633       	93.138306      	93.18193       	92.85107       	93.19877       	93.4744        	92.688095      	92.82738       	93.022415      	93.25697       	93.92619       	93.76059       	93.41629       	93.43217       	93.239586      	92.54004       	92.30382       	91.45589       	91.39873       	93.01215       	93.16151       	92.48857       	93.391365      	92.74093       	93.11783       	93.26275       	93.023         	93.025475      	
93.070786      	93.82433       	93.40829       	94.49838       	93.00078       	93.30164       	93.999756      	93.266685      	92.90529       	93.876625      	93.74207       	92.94646       	92.15129       	92.318726      	93.35114       	93.96109       	92.94653       	92.83847       	93.2726        	93.163574      	93.29561       	93.474174      	93.44048       	93.0433        	93.18472       	91.972206      	93.0935        	93.220345      	92.78299       	92.87326       	93.33568       	93.164444      	92.53126       	92.83731       	92.35204       	92.54996       	91.8983        	91.97568       	92.79451       	91.81428       	91.65785       	93.048164      	91.97088       	92.40377       	93.02852       	92.60583       	92.372894      	92.51553       	92.11954       	92.27471       	92.88593       	92.57          	93.07893       	92.71583       	92.33325       	92.67199       	93.07942       	92.84344       	92.688156      	92.42297       	92.84948       	92.83886       	93.28659       	92.01004       	92.24468       	92.90504       	92.79434       	92.698364      	93.04371       	92.963104      	93.16976       	92.99833       	93.08238       	91.177536      	92.52697       	92.61452       	92.805305      	92.71229       	92.1423        	93.357834      	92.961235      	92.78854       	93.118286      	92.54354       	92.54002       	93.15118       	92.709724      	92.65437       	90.74733       	89.0995        	89.609955      	91.931114      	92.93652       	93.22161       	93.49338       	93.18258       	93.33729       	93.59037       	93.74094       	93.792114      	
91.53075       	93.10514       	91.8499        	91.95499       	93.427284      	92.65775       	92.50932       	93.58461       	92.621666      	92.68444       	92.64714       	92.3523        	92.893555      	92.80382       	91.85709       	92.58235       	92.28615       	92.3232        	93.03096       	92.75321       	91.66407       	92.70747       	92.59595       	92.285835      	91.9403        	90.530205      	92.47391       	93.05282       	92.16565       	92.46251       	92.8664        	92.23223       	92.40551       	92.51066       	92.06347       	92.372925      	92.27007       	90.60421       	92.21581       	91.829025      	91.740715      	92.58119       	91.64023       	92.16627       	93.193275      	92.60086       	91.98117       	93.66963       	92.825424      	92.310265      	93.5993        	92.619064      	92.84854       	93.04955       	92.60432       	93.201035      	92.90418       	92.61474       	93.636         	93.26774       	92.70707       	93.63563       	93.657555      	93.2366        	93.392204      	93.08371       	92.34685       	93.20954       	92.81862       	93.4939        	94.09489       	93.90255       	93.18518       	92.98019       	92.877556      	92.87609       	93.2341        	92.60193       	90.39204       	92.26146       	92.7238        	93.260025      	93.14577       	92.12332       	93.123375      	92.308464      	92.43999       	93.44107       	90.88791       	89.36972       	90.2024        	91.64587       	93.95203       	93.55549       	93.27196       	93.32          	93.72777       	93.2056        	92.68204       	92.17313       	
92.85167       	93.93295       	93.27864       	93.61944       	93.54971       	92.92622       	93.69723       	92.78966       	92.78486       	93.202705      	92.74401       	92.57971       	93.50235       	92.531746      	93.2581        	94.49501       	93.14471       	92.428024      	93.35392       	92.3558        	93.05584       	93.72918       	92.53983       	93.12823       	93.168564      	92.06109       	93.12088       	92.694016      	91.399796      	90.109634      	90.86684       	91.75126       	92.200226      	92.14204       	92.590385      	93.48242       	92.35468       	92.41373       	92.81121       	92.083176      	92.48234       	93.09553       	92.058914      	92.5669        	92.484634      	92.0866        	92.73458       	92.109024      	92.61883       	93.953415      	92.77351       	92.368805      	91.72726       	91.93714       	93.64286       	93.193794      	92.51515       	92.917145      	93.41491       	92.63028       	94.12718       	93.66192       	92.91518       	93.814125      	93.64395       	92.989426      	93.132416      	92.86813       	93.10465       	92.64506       	90.083176      	89.60274       	92.9593        	93.03707       	92.542496      	92.92494       	92.31554       	92.31866       	93.29906       	93.270836      	93.59948       	93.2507        	92.76018       	92.72828       	93.51154       	92.76366       	92.88053       	93.76905       	92.71843       	91.85909       	92.82544       	93.269         	93.94251       	93.95561       	93.80254       	93.88587       	93.8192        	92.82087       	91.99915       	91.88595       	
92.25468       	92.142914      	92.202324      	92.50085       	92.08943       	91.97172       	92.06547       	91.68299       	91.73288       	91.100555      	90.883286      	91.88551       	92.25262       	91.98321       	92.264175      	92.5787        	92.00467       	92.25573       	92.484825      	92.061005      	92.43334       	92.94813       	91.47122       	92.51111       	92.816124      	92.43995       	93.02232       	92.99456       	92.25538       	90.59649       	91.66419       	92.903435      	92.725266      	92.978134      	92.24037       	92.60023       	92.91427       	92.08629       	92.93523       	92.89586       	92.3525        	93.330826      	92.713005      	92.117226      	92.994865      	92.33919       	92.42635       	93.319084      	92.6065        	93.2009        	94.06391       	93.56279       	91.21903       	91.897354      	93.30464       	92.797966      	94.51465       	92.6339        	91.75912       	93.64145       	92.90407       	93.10922       	93.42146       	92.6102        	94.11146       	93.793755      	93.81447       	93.59375       	92.890396      	93.56578       	91.49995       	90.70724       	92.62081       	94.01644       	93.25102       	93.228775      	93.21978       	92.72651       	93.25325       	93.06958       	92.79521       	94.36878       	93.48006       	93.34249       	93.95061       	93.54971       	93.04034       	93.28578       	93.06173       	93.30127       	93.915695      	93.1206        	94.233406      	94.041824      	92.66657       	92.98531       	93.80277       	94.305664      	94.081024      	94.14038       	
93.97094       	93.16333       	93.32867       	93.358154      	93.29804       	93.27623       	93.07624       	92.36593       	92.709366      	91.95866       	92.99942       	93.245346      	92.54333       	93.46392       	93.769485      	93.07673       	91.182465      	92.10006       	93.6709        	94.29245       	92.82211       	92.5002        	93.04394       	93.07279       	92.71541       	93.16969       	92.57205       	92.4233        	92.812164      	92.37906       	92.051704      	92.29548       	92.14157       	92.05177       	92.369095      	92.125656      	92.625275      	92.869415      	92.62467       	92.60303       	92.25074       	91.881134      	91.59051       	91.021034      	92.55451       	92.61116       	92.9239        	92.58941       	91.96363       	92.97615       	92.32181       	92.56934       	93.01502       	92.136665      	92.36972       	92.29935       	92.66642       	92.19677       	91.345505      	91.99196       	92.204666      	92.17306       	91.80174       	92.38929       	93.08505       	92.8828        	92.70398       	93.43967       	93.302414      	93.836655      	93.74208       	93.28756       	93.52088       	92.704575      	92.252655      	92.53052       	92.71395       	92.11235       	92.89577       	92.80171       	92.24576       	92.49177       	92.4747        	92.526596      	91.99378       	91.87899       	92.02002       	93.12093       	92.01122       	92.16102       	93.487045      	92.06035       	92.425446      	92.50278       	91.97182       	92.09675       	92.80684       	92.57459       	92.52389       	92.64092       	
93.01215       	94.602325      	94.4969        	94.73071       	95.06093       	93.798325      	94.705         	94.94905       	92.89232       	92.90518       	93.59016       	93.82138       	94.19522       	94.06342       	93.82613       	94.03187       	91.1241        	90.389206      	92.465546      	93.96794       	94.23197       	93.89086       	92.87515       	93.6325        	93.74304       	92.71573       	93.57618       	94.07289       	93.84437       	94.539566      	94.23914       	94.03883       	94.7531        	94.60997       	94.40787       	94.67284       	94.713455      	94.082306      	94.20382       	93.82894       	93.098946      	93.56236       	93.60547       	93.72299       	94.00937       	93.745674      	93.73917       	92.73954       	90.33946       	92.83369       	94.366745      	94.47159       	94.420685      	93.86185       	93.6955        	94.18039       	94.59583       	94.36122       	94.558         	94.801254      	94.666466      	95.4442        	94.605606      	94.193306      	94.68399       	94.50971       	94.381454      	94.11727       	95.02548       	94.35402       	94.87751       	95.16179       	95.17285       	95.08761       	94.64934       	94.28682       	94.449905      	93.742874      	93.936516      	94.78608       	93.66845       	93.16402       	93.39612       	93.068         	92.821884      	94.40629       	93.9512        	93.94161       	94.96793       	94.14914       	93.18616       	94.2378        	94.42608       	93.755455      	93.470215      	93.575714      	93.90577       	93.93631       	93.64941       	93.70506       	
93.81339       	94.37944       	94.62587       	93.724525      	94.364265      	94.058525      	93.28795       	94.0268        	94.19738       	93.26097       	94.27361       	94.42364       	94.59236       	95.14719       	94.472046      	94.10426       	94.26355       	91.24785       	91.12326       	94.73333       	93.67432       	93.81469       	93.98087       	93.02026       	93.94481       	93.36675       	92.43879       	92.7942        	92.708664      	92.72217       	93.23457       	92.84065       	92.54924       	91.9766        	89.00322       	87.67021       	92.04786       	92.799934      	92.62363       	92.97702       	92.05504       	92.95576       	93.42753       	90.61055       	92.46933       	93.04838       	92.639404      	92.2199        	92.04302       	92.18058       	91.85723       	92.52129       	92.05104       	92.454315      	92.99588       	92.52767       	92.52441       	92.819595      	92.16251       	92.38492       	92.8956        	92.69475       	93.035805      	93.1291        	93.122345      	93.000206      	92.98124       	92.653694      	92.78345       	91.51122       	90.270355      	91.74924       	92.76022       	92.98152       	92.21132       	92.13916       	92.13683       	91.68376       	91.793045      	91.93969       	92.224495      	91.8286        	92.07215       	91.576935      	91.72669       	92.08831       	92.92181       	92.698616      	92.47385       	92.56737       	92.19056       	91.6619        	93.02058       	92.36956       	92.30893       	92.62862       	92.67583       	92.3217        	92.3425        	92.36134       	
94.445915      	93.99366       	93.67394       	94.307         	94.65854       	94.23595       	94.89722       	93.913086      	93.68139       	94.0571        	93.86901       	93.56189       	92.915         	93.89179       	93.886345      	94.23585       	93.38407       	93.191246      	93.11288       	93.84396       	93.5435        	94.082535      	93.256676      	93.64578       	93.72065       	93.31346       	94.16625       	94.00776       	93.428345      	93.25764       	93.92847       	92.990555      	93.894005      	93.33766       	89.413994      	89.60766       	93.14926       	91.96913       	92.553055      	93.32451       	91.87076       	92.96664       	93.06108       	92.012314      	93.4264        	92.5524        	92.57197       	92.62439       	92.84606       	92.63365       	92.46644       	92.1877        	92.648186      	92.106766      	92.35805       	92.4337        	92.80261       	92.458565      	92.36238       	92.49114       	92.15672       	92.53007       	92.24798       	90.02978       	89.56705       	91.60334       	91.36569       	92.22775       	91.80881       	90.97138       	91.099785      	89.73206       	91.51237       	92.10695       	91.92443       	91.513054      	92.42261       	91.28011       	91.15858       	91.8513        	91.459755      	91.310455      	91.46765       	91.25744       	91.612015      	92.236465      	92.25532       	92.30268       	91.93356       	91.37174       	91.49268       	91.732834      	91.84517       	91.34638       	91.729004      	91.48011       	91.96757       	92.443115      	92.383064      	91.96224       	
93.13364       	93.50108       	93.34079       	93.24093       	93.80757       	93.751915      	93.78386       	93.5394        	93.29622       	94.027596      	93.809906      	93.937744      	93.06767       	93.80545       	93.85546       	93.736206      	93.42265       	93.26187       	92.98072       	93.3793        	93.39452       	92.99215       	92.910286      	92.232086      	92.98833       	93.21464       	92.65246       	92.23413       	92.893906      	92.76805       	92.775116      	92.47006       	92.89284       	93.14423       	93.094635      	93.02532       	93.37223       	93.42095       	92.67158       	92.86878       	92.90549       	93.0083        	92.42862       	92.98523       	92.334885      	92.842125      	93.56944       	94.05725       	92.64446       	92.863785      	93.15751       	92.98857       	93.08845       	92.91272       	93.927246      	93.6389        	93.42631       	93.289116      	93.532684      	93.23446       	93.14116       	92.9629        	91.58177       	89.54654       	89.386116      	90.73917       	92.43466       	92.26738       	92.38292       	91.93047       	92.30118       	91.80804       	91.97547       	92.3841        	91.853325      	91.91268       	92.79953       	92.04313       	92.26168       	92.68506       	92.2871        	92.48258       	92.47325       	91.75114       	92.730415      	93.94892       	93.51783       	93.64233       	92.978966      	92.91415       	92.838745      	93.49059       	93.03813       	92.906815      	93.21575       	92.78354       	93.36632       	94.11434       	94.33041       	93.578575      	
93.44687       	94.394356      	93.6837        	94.632324      	93.73531       	93.75058       	94.163895      	94.027466      	93.32234       	93.370636      	93.459854      	92.7999        	93.79442       	93.75103       	93.741104      	94.28059       	94.040474      	93.57862       	94.16582       	94.02361       	93.87073       	94.14998       	94.24106       	93.848076      	94.31637       	93.76805       	93.95031       	93.75419       	93.30962       	93.71164       	93.63745       	93.57865       	94.09168       	93.875534      	94.057335      	94.608246      	94.48498       	94.15514       	94.113846      	94.29753       	94.41317       	94.43184       	93.51297       	93.80241       	94.64317       	94.64113       	94.62849       	94.739         	94.424545      	94.45755       	94.222786      	94.10705       	94.16702       	93.27339       	92.729576      	92.12242       	93.57431       	93.520515      	93.72991       	94.13654       	94.24427       	95.20151       	92.89819       	91.01645       	90.96917       	91.50758       	94.180855      	93.63261       	93.49831       	94.140816      	93.88101       	93.07325       	94.34471       	94.17733       	94.029785      	93.84343       	93.25368       	94.54639       	94.38437       	94.11634       	94.46738       	94.57141       	94.04414       	94.27815       	94.67187       	92.7594        	91.708725      	93.18356       	94.77608       	94.33077       	94.55763       	94.39765       	94.53076       	94.59557       	94.213936      	93.60292       	94.157295      	94.14332       	93.614136      	93.6746        	
94.52437       	93.9574        	94.42575       	94.414024      	93.91667       	94.147026      	93.49812       	93.013504      	93.31304       	93.768814      	93.98514       	93.874664      	93.788216      	94.2981        	94.38997       	94.0594        	94.28989       	94.383736      	94.42827       	94.60674       	95.23817       	94.274055      	94.77248       	94.434326      	94.88753       	94.633095      	95.13094       	94.10585       	94.3147        	93.37805       	92.680305      	94.46011       	93.94683       	93.99341       	93.964264      	93.71705       	93.50867       	94.36746       	94.42854       	94.24565       	93.137985      	94.192314      	93.51071       	94.0912        	94.36519       	93.384476      	94.08167       	94.09945       	94.0429        	94.36528       	93.25118       	94.344406      	94.01644       	93.99597       	93.762054      	94.173836      	94.34919       	93.472565      	92.988205      	93.08911       	92.44176       	92.90343       	93.789955      	92.78863       	92.211845      	92.61316       	92.72978       	92.91495       	93.127045      	93.130684      	93.710724      	93.40367       	93.51756       	93.6571        	94.35593       	93.89466       	93.95398       	94.11396       	93.22377       	91.32942       	92.477974      	93.47258       	94.12237       	93.72893       	93.21965       	90.5861        	89.52466       	90.61739       	93.898796      	94.07996       	94.38249       	95.36105       	93.00263       	91.42622       	94.3694        	93.94478       	94.06978       	94.36889       	94.60595       	94.51659       	
93.06237       	93.367195      	93.05079       	92.79802       	92.88184       	92.401726      	92.4826        	93.06193       	92.36886       	92.00223       	92.24521       	91.8162        	91.73865       	92.048615      	91.94556       	91.920944      	92.0264        	92.36042       	92.377266      	92.3383        	92.06567       	91.80293       	91.00786       	90.231964      	92.40064       	92.46505       	91.558464      	91.9225        	92.19034       	91.08981       	89.96404       	91.59558       	92.35599       	92.95873       	92.2071        	92.48153       	93.00086       	92.777435      	92.320625      	92.54968       	92.752914      	92.53068       	92.59477       	92.71901       	91.62453       	93.05336       	92.1548        	92.43952       	92.376015      	92.648544      	92.304924      	93.23731       	93.08361       	92.453804      	93.99866       	92.815094      	91.2747        	93.48569       	93.14308       	93.253716      	93.19506       	92.93332       	93.06404       	94.07052       	93.216644      	92.99385       	93.38178       	92.81551       	94.027016      	94.13358       	92.30901       	94.214264      	94.25487       	93.27498       	93.53768       	93.39311       	94.21632       	93.73768       	93.95246       	93.42748       	93.7325        	93.96196       	93.59455       	94.23897       	93.38048       	90.26881       	89.13478       	89.300934      	92.42879       	93.294624      	93.27509       	93.52774       	92.44006       	91.15557       	92.82129       	93.69505       	93.67468       	94.041985      	93.820854      	93.64197       	
92.899185      	92.01069       	91.88585       	92.157295      	92.36679       	92.630264      	92.625114      	91.86841       	92.819214      	92.793106      	92.199615      	92.40024       	91.99743       	91.9496        	92.02668       	92.286674      	91.01847       	91.660805      	92.4966        	92.2956        	92.45607       	93.054405      	92.84111       	92.21512       	92.80582       	92.05144       	92.40564       	93.24146       	92.40093       	93.08508       	93.26879       	92.887         	93.34864       	92.76335       	92.02872       	92.81377       	92.37137       	92.67366       	91.1385        	91.434944      	92.23603       	93.07338       	92.446846      	92.01993       	92.96319       	91.84527       	91.8987        	92.18903       	91.563934      	91.666954      	91.44003       	91.89205       	92.30355       	91.99616       	91.31043       	92.21685       	91.7248        	91.34728       	91.975136      	91.02184       	91.611084      	91.78744       	90.68321       	91.750534      	92.22115       	91.34026       	91.22259       	91.24617       	90.60312       	90.398994      	91.264175      	91.152306      	91.24238       	91.554146      	90.24824       	90.71805       	91.31649       	90.91101       	91.673546      	92.32335       	91.317375      	91.7226        	92.15333       	91.32146       	91.96883       	91.412834      	89.72569       	91.50448       	92.42615       	92.09543       	92.49449       	91.5404        	91.67907       	92.34871       	92.081314      	91.96208       	92.33904       	92.103325      	92.076546      	91.84831       	
93.16214       	93.14594       	91.013466      	92.08378       	93.41138       	93.492874      	92.8112        	92.74402       	92.03483       	92.492256      	92.82776       	92.48957       	92.4946        	93.09709       	93.01782       	93.2467        	93.18598       	92.7789        	92.54418       	92.67411       	93.167496      	92.96076       	93.06689       	92.39479       	93.14038       	93.09244       	92.9007        	92.69442       	93.10457       	93.46814       	93.45959       	93.2315        	92.66132       	92.95991       	92.86695       	92.1934        	92.06905       	92.818436      	92.30273       	91.94923       	92.41691       	92.269806      	92.372055      	92.30456       	92.22669       	92.149185      	92.75168       	91.49703       	91.819466      	91.62586       	90.898964      	91.922165      	91.7503        	92.01952       	91.977         	91.89134       	92.0486        	92.1461        	92.22625       	92.537704      	92.397255      	92.070206      	91.735916      	91.828865      	91.64183       	91.35802       	91.768974      	91.31166       	91.30367       	91.299774      	91.914825      	92.2283        	91.94858       	92.702095      	91.64284       	92.05301       	92.674385      	93.04096       	92.48924       	92.55974       	92.47624       	91.88956       	92.66842       	92.30882       	92.28837       	92.51366       	91.975044      	92.33272       	92.48869       	92.190636      	91.69428       	91.72496       	92.23833       	92.397415      	92.40084       	92.03036       	91.91784       	91.75952       	92.201614      	92.30415       	
92.397285      	92.15868       	92.459274      	92.78678       	92.01763       	91.93495       	92.37378       	92.0177        	91.96171       	92.03326       	92.40238       	92.50744       	92.78402       	92.50216       	92.653496      	92.90759       	92.45214       	92.95494       	92.50789       	92.34572       	92.037         	92.373795      	92.537735      	92.304214      	92.6353        	92.57183       	91.90622       	91.51421       	90.85113       	92.38367       	92.96361       	92.46644       	93.169136      	93.600204      	92.81862       	91.93006       	92.91086       	92.47839       	92.54876       	93.45617       	92.88932       	92.49053       	92.617035      	91.75392       	92.17542       	92.460884      	91.78304       	92.08775       	92.71646       	92.20675       	92.64638       	92.87253       	92.21561       	92.34914       	92.09217       	91.89466       	92.27556       	92.159996      	91.67223       	93.14966       	92.8901        	92.304146      	92.451164      	92.43025       	92.22281       	92.03576       	92.73417       	92.734634      	92.09096       	91.79891       	91.64019       	92.805855      	92.64261       	92.325195      	92.10799       	91.97002       	91.89343       	92.68043       	92.43549       	91.798676      	92.494804      	92.4558        	92.63549       	92.74344       	91.99284       	92.34717       	92.667114      	92.46673       	92.57739       	93.14835       	93.02309       	92.74588       	92.977066      	92.74327       	92.66063       	92.72839       	92.89661       	93.11157       	93.19784       	92.970894      	
95.2933        	94.92978       	95.48205       	95.27699       	94.428185      	94.40227       	94.92533       	94.29357       	94.25818       	94.42311       	94.385414      	93.578285      	93.910805      	93.69979       	94.36828       	94.00141       	93.692184      	93.77913       	93.21259       	92.7191        	93.40905       	93.458534      	92.973335      	93.37125       	93.96967       	93.489456      	94.17598       	91.50404       	90.35473       	92.704765      	94.23591       	94.40942       	94.491295      	93.64485       	93.542534      	93.8315        	93.733505      	93.37929       	93.22987       	92.881874      	93.16841       	93.13945       	92.53679       	92.57819       	92.78661       	93.48689       	93.453804      	93.33703       	93.678474      	93.55648       	93.69367       	93.80604       	93.603195      	94.122154      	93.74036       	93.38604       	94.02402       	93.64637       	93.712         	94.01354       	93.48128       	94.253944      	94.05512       	94.267456      	94.001396      	93.72641       	93.08914       	94.016205      	94.26826       	94.1355        	94.20888       	95.253716      	93.73315       	94.15157       	94.44136       	93.751144      	94.0397        	94.85822       	94.19422       	94.4038        	94.04118       	93.47591       	92.50147       	94.15514       	93.91463       	94.18719       	94.29247       	93.933136      	94.18739       	94.777756      	94.50028       	94.83224       	95.01335       	94.666504      	94.42105       	94.761055      	94.83066       	94.49756       	94.55306       	94.842514      	
92.979996      	91.91197       	92.85872       	91.82094       	92.23918       	92.833176      	92.77522       	92.046425      	93.285194      	92.94523       	92.63974       	93.608025      	93.12326       	92.66361       	92.93495       	91.70135       	92.13353       	92.443         	92.24747       	92.09511       	92.53808       	91.29943       	92.18263       	91.6505        	91.629425      	92.93448       	92.54631       	91.67595       	90.03268       	91.32514       	92.68871       	93.28844       	92.90024       	92.84006       	93.32963       	92.408745      	91.97937       	91.7636        	91.00365       	91.975395      	92.36125       	92.432045      	91.92935       	92.09632       	91.799835      	92.583176      	92.40988       	92.20998       	92.56555       	93.94986       	93.33037       	93.21233       	93.67941       	92.801216      	93.16995       	93.256874      	92.91259       	92.56529       	92.775475      	92.44674       	92.64456       	92.39765       	92.3555        	92.93477       	92.69505       	92.39416       	93.29741       	92.32007       	91.20889       	90.171005      	91.08643       	92.204834      	92.82686       	92.72054       	92.867744      	93.01123       	92.85362       	92.94905       	93.33146       	92.932846      	92.63416       	93.28202       	92.90189       	92.09115       	93.59632       	92.81702       	92.85929       	93.0666        	92.58839       	93.00719       	93.65479       	93.056         	93.31497       	93.64366       	94.05821       	93.57414       	93.48571       	93.10802       	93.38387       	93.115326      	
92.86177       	93.431755      	93.39473       	91.73931       	92.80306       	92.29213       	91.45531       	92.53209       	91.8883        	91.472374      	91.82267       	92.36514       	91.61849       	92.14748       	92.13618       	91.43424       	91.064606      	91.42573       	91.20239       	91.57719       	90.67109       	90.78944       	91.293205      	90.9495        	91.14449       	90.91883       	91.18355       	91.11629       	91.7203        	91.39179       	90.78031       	90.39338       	90.67835       	91.01172       	91.11647       	90.75896       	91.17325       	90.944176      	90.98027       	91.207016      	90.6795        	91.29134       	91.36268       	90.76606       	91.19998       	91.72789       	91.61646       	91.912315      	91.50937       	90.065865      	89.95605       	91.59895       	91.6947        	91.51448       	92.67016       	91.46725       	91.283775      	92.23088       	91.317764      	91.82377       	92.25481       	92.20008       	92.413666      	92.12479       	91.79318       	91.822075      	91.990105      	92.178635      	92.210014      	89.430595      	89.810875      	92.22799       	92.09493       	92.11441       	92.23605       	92.01269       	91.91558       	92.409195      	91.132286      	91.14711       	91.527916      	91.91995       	91.55823       	91.91386       	91.580154      	91.39962       	91.84123       	91.83463       	90.87375       	91.286705      	91.57642       	91.36832       	91.928665      	91.99948       	92.27308       	92.57277       	92.3354        	91.92193       	92.413155      	92.84933       	
94.20771       	94.69954       	95.03861       	94.32237       	94.19355       	93.85179       	93.29505       	94.15024       	93.700386      	94.11986       	94.476265      	93.01352       	93.283066      	94.297226      	93.08357       	93.95511       	94.4902        	93.74244       	94.42905       	94.618324      	93.24438       	94.05814       	94.259415      	92.92624       	94.39832       	94.128746      	93.369514      	95.0418        	94.55311       	94.089836      	94.27379       	93.07016       	94.63778       	94.82263       	94.49466       	94.820175      	95.18917       	94.46547       	94.35637       	94.43715       	93.57742       	94.503334      	94.33316       	93.75026       	94.194595      	93.97209       	94.51629       	95.075424      	91.961464      	90.61796       	91.07194       	92.84822       	94.93461       	95.07914       	94.35888       	95.05382       	92.80049       	92.92574       	95.05446       	94.700645      	94.48237       	94.75455       	95.54008       	94.44161       	94.861786      	95.38899       	94.054276      	95.37049       	94.41618       	93.34406       	95.498985      	94.968376      	95.056         	95.640175      	95.29152       	94.62607       	93.435074      	93.877426      	94.622406      	95.22936       	93.84899       	94.13675       	94.49483       	93.96745       	95.48591       	94.868576      	94.52292       	94.96197       	94.35817       	94.67797       	95.00805       	93.68762       	94.18855       	95.605415      	95.193375      	94.71452       	95.52299       	96.01994       	95.63818       	94.59193       	
93.91804       	93.184296      	92.982834      	93.62638       	93.82296       	92.944466      	93.42603       	93.87313       	93.1073        	93.1339        	93.61446       	92.51225       	92.55782       	93.297806      	92.904976      	92.50827       	93.15651       	92.5703        	93.425934      	93.00924       	92.648895      	93.29406       	92.41403       	91.950935      	92.889145      	92.64967       	92.714966      	92.48539       	92.76558       	90.69743       	92.636215      	93.35098       	93.05477       	94.14577       	93.468414      	93.20672       	93.14344       	92.84836       	92.84029       	93.77828       	93.80676       	93.65145       	93.480965      	93.55492       	93.135254      	93.81356       	93.40932       	93.43177       	90.98357       	88.13881       	87.82802       	91.04501       	92.914116      	93.026115      	93.1283        	91.97375       	92.14582       	92.01761       	92.28532       	92.88526       	92.78158       	92.20383       	92.56046       	92.64819       	92.334076      	92.57039       	90.98406       	91.40133       	91.82499       	91.97867       	91.75782       	92.34443       	92.10127       	91.82823       	92.185555      	92.36972       	92.27726       	92.97806       	93.106735      	92.22852       	92.34112       	92.8849        	92.71406       	93.01127       	91.66295       	91.74946       	92.177         	92.18391       	91.96113       	92.79288       	92.874725      	92.066025      	92.79454       	92.336044      	92.37214       	92.412834      	92.83515       	92.35822       	91.67623       	90.45032       	
93.74073       	92.736946      	93.15472       	92.95323       	93.03226       	93.45304       	93.450714      	93.40218       	92.58719       	93.266594      	93.34586       	92.53787       	92.8957        	92.933365      	91.967285      	91.6115        	92.20346       	91.43354       	92.5727        	91.55634       	91.43758       	92.750534      	92.26659       	92.162         	92.80279       	91.445         	91.84998       	92.29778       	91.623955      	91.98772       	91.873215      	91.44404       	91.74733       	92.54306       	91.73043       	92.11142       	91.41483       	90.791824      	91.71046       	91.60634       	91.09486       	91.25411       	91.26779       	91.21628       	91.86922       	91.29163       	91.24275       	92.034904      	89.75298       	89.03328       	89.5241        	90.3237        	91.86813       	92.040726      	90.836655      	91.41656       	91.67011       	91.50026       	91.64226       	91.022026      	90.46859       	90.66015       	90.85963       	89.75256       	91.08354       	91.15556       	90.62814       	91.12497       	91.47311       	91.0509        	90.864136      	91.479         	91.38106       	91.958725      	91.969604      	91.53645       	91.78487       	91.591805      	91.29744       	91.0456        	92.30546       	92.04623       	92.637695      	92.49893       	92.25634       	92.62202       	92.84899       	92.49954       	92.74501       	92.53109       	92.5124        	93.91053       	93.67814       	92.843056      	93.58935       	92.946945      	92.745255      	93.26925       	92.69608       	92.33827       	
94.056404      	94.29295       	94.21815       	93.5035        	93.91328       	94.7119        	94.42198       	92.96516       	94.509895      	94.41854       	93.76369       	94.55879       	93.94282       	94.38927       	94.580864      	94.408485      	94.79334       	94.26514       	93.163124      	95.0088        	94.88638       	94.017296      	94.704636      	94.46773       	94.144936      	92.04723       	93.32276       	94.29534       	94.14466       	94.209915      	93.90317       	94.22397       	94.7752        	94.41795       	94.56376       	94.46528       	93.88915       	94.15858       	93.92265       	93.939644      	94.05529       	94.14162       	94.44352       	94.12526       	94.41244       	94.16499       	93.91589       	94.0559        	93.69429       	94.05777       	94.08366       	94.46972       	94.14311       	94.53726       	93.78844       	94.57964       	94.29801       	93.83046       	94.01199       	93.15235       	93.05725       	93.403694      	93.11459       	92.87839       	93.27926       	92.9187        	93.02907       	93.72246       	93.02015       	92.991455      	92.462975      	92.56214       	92.547516      	92.36037       	92.55272       	92.56615       	92.0999        	92.05363       	92.51599       	92.55431       	92.49268       	92.57533       	93.240005      	93.356865      	93.48805       	93.1508        	92.82202       	92.48685       	92.0354        	92.34178       	92.22275       	91.81447       	92.479034      	92.89833       	92.67935       	92.921616      	92.531456      	92.40152       	92.26364       	92.382484      	
94.0902        	92.879654      	94.0553        	92.9724        	93.09456       	93.844406      	92.88376       	92.5083        	92.5992        	91.99507       	92.56158       	93.18952       	92.99721       	93.77762       	94.38858       	93.59766       	93.48934       	93.280464      	93.05763       	93.665726      	93.179436      	93.19681       	94.047615      	93.14151       	93.46473       	93.534966      	91.9997        	93.54886       	93.89497       	93.25977       	93.23298       	93.795074      	93.396         	94.03989       	93.865234      	92.93222       	93.40865       	93.89037       	93.432175      	94.064255      	93.91866       	93.84351       	93.8247        	94.32906       	93.409744      	94.329666      	93.98371       	93.33472       	93.594765      	93.39764       	93.93859       	93.950806      	93.81971       	93.3482        	93.6963        	93.17639       	92.95874       	93.0299        	93.285515      	92.782745      	91.45653       	93.03601       	92.8919        	93.56261       	93.417244      	93.89466       	93.73824       	93.265854      	94.146614      	94.19411       	94.06966       	94.39244       	94.42435       	93.330605      	93.71172       	94.146935      	93.535645      	94.38471       	94.27729       	93.4521        	93.60766       	94.149956      	92.84135       	93.322105      	93.250565      	92.53413       	93.59283       	92.98961       	91.75194       	93.240715      	93.43234       	92.673325      	92.97926       	92.526764      	92.5697        	92.90864       	92.865105      	92.79681       	92.857285      	92.31046       	
92.432076      	92.37586       	92.21615       	92.52128       	92.858025      	93.04468       	92.86323       	92.486824      	93.0956        	91.76854       	92.13201       	92.44986       	92.004654      	92.27274       	92.467735      	91.9672        	91.737335      	92.47757       	92.22902       	92.269775      	92.35082       	92.70765       	92.72156       	91.92231       	92.37465       	93.3945        	92.60241       	92.00574       	92.44787       	91.942314      	91.57713       	91.82944       	92.40458       	92.31067       	92.27827       	91.83804       	91.052315      	91.95435       	91.56562       	92.014435      	92.381256      	91.929085      	91.42436       	91.98073       	91.76693       	91.91806       	91.98665       	91.847404      	92.32003       	92.68703       	92.86996       	92.70531       	92.48243       	92.31623       	92.61646       	92.52011       	92.164375      	93.14051       	92.681046      	92.033165      	91.01934       	92.3083        	93.037834      	93.24606       	92.99295       	92.62436       	93.08367       	91.83236       	91.368355      	92.82792       	92.0905        	92.961716      	94.013145      	92.965775      	93.6739        	94.519325      	93.003586      	90.61152       	92.99858       	93.49659       	93.20834       	93.44952       	93.06201       	93.74461       	93.92613       	93.92288       	94.70857       	93.65095       	92.90658       	94.15472       	93.74869       	92.876274      	94.18006       	94.02436       	94.11658       	94.42984       	94.23162       	94.017715      	94.09799       	94.10163       	
93.816376      	94.80673       	94.486465      	94.202354      	93.68529       	91.4684        	92.917816      	94.21274       	93.715805      	94.07374       	93.93381       	93.868935      	93.693344      	93.86258       	94.61403       	94.031685      	94.27028       	94.36658       	94.12031       	93.605354      	94.00463       	94.41871       	94.000114      	94.34992       	94.901764      	94.19244       	93.88281       	94.50098       	93.537994      	93.50379       	93.82879       	93.44563       	94.01275       	93.93725       	93.51127       	93.77801       	93.93387       	93.94205       	93.86986       	94.382774      	93.71795       	93.892586      	94.01492       	93.43779       	94.44355       	94.452675      	94.11267       	94.24499       	94.58984       	93.29479       	93.55172       	93.30855       	93.00436       	93.77394       	93.73662       	93.5254        	93.36905       	90.987274      	91.510704      	93.53055       	92.92781       	92.227036      	93.19949       	93.1807        	92.96337       	93.163086      	92.77531       	93.042465      	93.43328       	92.449905      	93.04555       	93.73953       	93.02044       	93.54469       	94.22839       	92.83857       	93.54643       	92.71186       	92.53109       	94.62279       	93.67952       	93.42506       	93.806114      	93.452805      	93.04651       	93.868484      	93.248116      	93.07818       	94.47446       	93.781334      	93.97765       	95.07419       	93.10685       	94.12047       	94.68218       	93.79876       	93.41837       	94.78026       	95.145874      	94.68719       	
93.24577       	93.95794       	93.42274       	91.59905       	89.83527       	89.49617       	89.783134      	92.27275       	92.902214      	91.884155      	91.97778       	91.707756      	92.263016      	92.42408       	91.80191       	92.83403       	92.91179       	92.30619       	92.47177       	92.463066      	92.87574       	92.51725       	92.75158       	93.05541       	92.767044      	91.89963       	91.66825       	92.2773        	90.99474       	91.15285       	91.901375      	92.121956      	92.681305      	92.304276      	92.63675       	92.51616       	92.93321       	92.98999       	91.490616      	91.59445       	91.5166        	91.58974       	92.363815      	92.41687       	92.028336      	92.8702        	93.229805      	92.034195      	92.641235      	92.81787       	92.96306       	93.192764      	92.7159        	92.63252       	93.18236       	92.75284       	92.013374      	92.54667       	91.3872        	92.059525      	92.18155       	91.590004      	92.32852       	92.579605      	91.98509       	92.61743       	92.39305       	92.14714       	92.37587       	92.51627       	91.89713       	92.20479       	92.58514       	91.855515      	92.08757       	92.08607       	91.697586      	93.10186       	92.64367       	92.2817        	93.126144      	92.447685      	92.189415      	92.92643       	93.07846       	92.21547       	92.65519       	92.09703       	91.56686       	93.57728       	92.678825      	92.76644       	90.59188       	91.852615      	93.62381       	94.34669       	93.86361       	93.38159       	92.570786      	92.824936      	
93.82712       	94.02141       	94.687004      	93.590195      	91.469986      	92.52515       	92.96382       	93.33249       	94.52216       	93.8236        	93.25153       	94.15504       	93.85095       	92.958244      	93.55441       	92.904655      	93.337265      	93.93088       	92.20589       	92.35657       	93.70825       	92.94935       	93.18665       	93.47745       	92.44628       	93.412674      	93.500534      	93.39449       	94.07382       	93.63297       	92.793564      	93.52124       	93.21764       	93.25159       	93.486015      	92.35529       	92.069405      	92.644135      	92.044205      	92.79784       	92.67798       	91.65539       	92.807976      	92.66708       	92.04228       	92.64779       	92.802246      	91.977104      	92.59623       	91.295074      	90.861465      	91.75184       	89.01782       	89.67272       	91.401276      	90.2552        	90.05907       	91.23849       	89.701614      	90.215706      	90.54422       	89.73682       	90.62487       	90.188835      	91.158455      	91.19042       	91.43754       	90.28629       	91.09465       	90.98682       	90.948296      	91.78825       	90.88103       	91.80242       	91.892105      	92.177864      	92.621216      	93.44702       	93.19881       	93.43427       	93.59637       	93.803024      	92.456474      	93.47946       	92.895874      	92.503204      	93.16211       	93.65238       	93.377594      	92.669846      	94.12651       	93.74478       	92.892784      	92.9991        	93.28008       	93.81466       	93.582275      	93.20544       	92.116905      	92.238594      	
92.8524        	92.751625      	93.50445       	93.28426       	92.641464      	93.15845       	92.33743       	92.70135       	92.94584       	92.50856       	92.08283       	92.39809       	92.44367       	92.47944       	92.51151       	91.19545       	91.93399       	92.67858       	91.948         	93.61807       	93.00289       	92.558586      	93.15626       	92.44771       	92.93274       	92.85552       	92.87247       	93.144485      	93.814705      	92.22389       	92.2905        	92.48624       	90.13348       	92.5633        	92.68389       	91.63631       	92.182816      	92.19229       	90.946396      	92.080894      	92.32016       	92.57989       	93.085686      	93.275055      	90.13441       	90.04886       	92.46732       	93.082954      	93.55565       	93.339836      	92.67272       	93.5118        	93.05257       	92.44374       	93.58183       	92.38702       	92.742065      	93.896194      	92.67919       	92.48524       	93.02912       	92.757324      	92.51978       	93.427986      	92.17238       	92.704025      	93.05795       	92.61644       	91.734795      	91.98609       	91.39479       	92.07974       	91.412735      	91.409966      	92.47183       	92.03696       	91.76974       	92.90173       	91.57973       	90.0836        	91.983444      	91.77375       	92.30641       	92.70922       	92.27684       	93.01402       	93.03496       	92.305176      	92.7101        	92.31255       	92.231445      	92.86441       	92.47037       	91.795334      	91.88996       	91.76298       	91.52954       	91.72844       	91.87597       	92.53787       	
93.26895       	93.823326      	92.9308        	94.2331        	94.37462       	92.68609       	93.314606      	93.96635       	93.385735      	94.08617       	94.47254       	93.24953       	94.94018       	94.069336      	93.814606      	95.34439       	94.16459       	93.414055      	94.61476       	93.449356      	94.054146      	94.54141       	93.337456      	93.703964      	94.51729       	93.82667       	93.83061       	94.538155      	93.62045       	94.29137       	94.5245        	93.26852       	94.5542        	94.79799       	93.55741       	94.20899       	93.7003        	93.090935      	94.65553       	93.93607       	94.29394       	95.03993       	94.34982       	94.98576       	93.971855      	90.419785      	91.42795       	95.26879       	94.04821       	94.257256      	94.185295      	93.63774       	94.7321        	94.46847       	93.52955       	94.8062        	94.45128       	93.787895      	94.79015       	93.01241       	93.18099       	94.19498       	93.26115       	93.39361       	93.66605       	93.30521       	93.85844       	93.764046      	92.91718       	94.01175       	94.389435      	92.8789        	93.526115      	93.34687       	93.12887       	94.154785      	93.99565       	94.176254      	93.46509       	90.32732       	91.85632       	94.444664      	92.782524      	92.76334       	94.20686       	92.535324      	93.08786       	93.6444        	93.23576       	93.47783       	93.18279       	93.19308       	93.5081        	93.75954       	93.022934      	92.557625      	92.721634      	93.09816       	93.20721       	92.61282       	
91.5619        	91.389145      	92.11502       	90.942986      	91.30856       	91.959175      	91.112335      	91.753105      	91.62833       	92.073074      	92.25504       	92.433426      	92.0586        	91.935196      	92.06065       	91.47122       	91.88136       	91.457565      	90.5594        	91.49699       	90.975235      	90.83593       	91.25614       	91.182045      	92.04011       	92.46294       	92.54424       	92.01001       	92.17841       	91.2384        	91.40547       	91.49367       	91.55849       	91.64204       	92.0655        	91.60375       	92.02235       	91.25406       	91.34284       	91.02421       	90.93461       	91.03996       	91.36905       	92.1253        	92.0431        	92.60777       	92.32783       	92.62967       	92.8379        	92.56618       	92.206635      	92.49346       	92.37686       	92.27877       	92.95065       	92.35318       	92.83509       	93.2715        	92.183426      	92.119095      	93.24306       	92.93824       	92.47074       	92.54016       	91.606476      	92.68261       	92.21411       	89.37671       	89.88323       	92.558266      	92.371376      	92.159256      	92.40746       	91.94678       	91.916916      	92.93236       	92.63582       	92.46191       	93.09086       	91.47606       	92.21101       	92.42219       	91.872894      	92.97413       	93.0464        	92.947525      	93.94177       	93.44783       	93.30268       	93.36095       	93.1151        	93.34481       	93.94416       	93.67261       	93.24081       	93.41029       	93.47893       	93.03653       	93.11572       	93.01402       	
91.86463       	93.159904      	92.09417       	92.204796      	93.478065      	92.639854      	91.97071       	92.77359       	92.30627       	91.67894       	92.72322       	92.165115      	92.28185       	92.13642       	91.574265      	91.586044      	91.777466      	90.34199       	91.803635      	91.9805        	91.7701        	92.14296       	91.55421       	91.961334      	91.88146       	92.03393       	91.055214      	90.323204      	91.550125      	91.53874       	91.899185      	91.28381       	91.21871       	92.0976        	91.82179       	91.71358       	91.99625       	91.41511       	91.39532       	91.813965      	91.31885       	90.85438       	91.69455       	91.57309       	91.93277       	92.19836       	91.151985      	92.292114      	91.36858       	91.20728       	92.969406      	92.38976       	92.50764       	92.75432       	93.036575      	92.499214      	93.11418       	92.80002       	92.65063       	93.01001       	92.96829       	93.650635      	93.22611       	93.463486      	93.30237       	93.67142       	93.19402       	92.39719       	89.90938       	90.93011       	93.27631       	93.09103       	92.377815      	92.857254      	92.89308       	93.15478       	92.59806       	92.19838       	93.22375       	93.20122       	92.61717       	93.12743       	92.732956      	91.59456       	92.88167       	92.29027       	91.93316       	92.86577       	92.448456      	92.71148       	93.137344      	93.2891        	92.78504       	93.338905      	92.05317       	91.888374      	92.21167       	92.70405       	92.77974       	92.2534        	
92.809204      	92.56572       	93.22989       	93.06775       	92.60615       	93.238106      	91.87802       	93.082275      	93.59789       	92.53808       	92.88098       	93.21977       	93.22021       	92.67793       	92.12428       	92.55136       	92.2316        	92.14709       	91.97845       	92.53941       	92.14767       	92.12977       	92.69205       	92.43802       	92.62855       	93.153854      	92.62172       	92.575874      	93.16639       	92.44367       	94.12158       	93.1278        	92.629395      	93.65779       	93.77787       	93.128044      	93.95085       	93.5179        	93.3501        	93.71122       	93.078384      	92.99149       	93.65478       	93.304306      	94.11321       	92.580475      	93.511795      	93.09196       	94.119095      	93.73453       	94.27574       	94.08379       	93.135056      	93.96376       	94.04965       	93.13815       	93.758255      	94.28543       	93.03793       	93.70938       	93.816696      	93.13231       	93.42317       	93.842545      	93.11302       	93.41675       	93.04515       	92.63229       	92.5938        	91.995125      	92.08493       	92.43864       	90.551865      	92.48295       	93.3259        	92.22217       	92.17476       	92.815056      	92.133514      	92.56165       	92.8726        	92.33959       	93.11872       	93.443886      	92.50954       	93.36568       	93.62032       	92.906654      	93.4924        	92.85807       	90.31679       	91.23709       	92.780136      	91.8747        	92.73235       	92.625275      	92.74474       	92.67062       	92.83892       	92.80103       	
94.61565       	93.76594       	94.22491       	94.56731       	93.78077       	94.05558       	94.7937        	94.74277       	94.60051       	93.78824       	93.42463       	94.6351        	94.27326       	93.73837       	93.49501       	93.73737       	93.48848       	94.08448       	93.622856      	93.31157       	94.215805      	93.75935       	93.653534      	94.99322       	93.81611       	94.11435       	94.65561       	93.95968       	92.169876      	91.67956       	92.24571       	93.94699       	94.335434      	93.97047       	93.50347       	93.86278       	93.972336      	93.85847       	94.75357       	94.403145      	94.65819       	94.681046      	94.25243       	94.74421       	94.614456      	94.02979       	94.02181       	94.707344      	93.786415      	94.95143       	94.37674       	94.099724      	94.41786       	93.83402       	93.59246       	94.38692       	94.07049       	93.67193       	93.81469       	91.933975      	92.423096      	94.414955      	92.733345      	93.421875      	93.24892       	92.84783       	93.86574       	93.56575       	92.90618       	93.852066      	93.466515      	92.73233       	91.83096       	92.75992       	92.76897       	94.027336      	93.24932       	93.248665      	93.996216      	92.948975      	93.11054       	93.63118       	93.25507       	93.94478       	93.99666       	92.91843       	94.035576      	93.444756      	92.70089       	93.631         	93.15764       	92.59774       	93.84294       	93.11922       	92.55992       	92.18245       	93.31186       	93.26037       	92.76167       	92.89416       	
94.20246       	94.17357       	94.84197       	93.89426       	94.75398       	94.9566        	94.53182       	95.42557       	94.77094       	90.71242       	90.81421       	93.064735      	93.39041       	92.991264      	92.72149       	92.39376       	93.1258        	92.79432       	92.85876       	93.25053       	93.08969       	92.73305       	93.33139       	92.89721       	93.79891       	94.424515      	93.32187       	94.31159       	94.52443       	91.67932       	93.91185       	93.98031       	93.73467       	94.37621       	94.17288       	93.74022       	94.26741       	93.85573       	92.94776       	91.825066      	93.747604      	93.330086      	94.45226       	93.33294       	93.70308       	94.14472       	93.32695       	94.02464       	93.845985      	93.10372       	93.16505       	93.64434       	94.093704      	94.26843       	94.142975      	92.98546       	92.90311       	93.58971       	93.66307       	93.787445      	93.9544        	93.544785      	93.5467        	93.596725      	91.44904       	93.52984       	93.66143       	92.51579       	93.64452       	93.305374      	92.19583       	93.54342       	93.158485      	93.56238       	92.99388       	92.36788       	92.67396       	93.64124       	92.773445      	92.75965       	93.203964      	92.664986      	93.157845      	93.15723       	92.696236      	93.080376      	93.207855      	92.381485      	93.3935        	93.2998        	93.09677       	93.22409       	93.163925      	92.58778       	93.29366       	93.29504       	93.04701       	92.983345      	93.13318       	93.21408       	
93.36612       	93.87645       	93.87748       	94.66806       	94.38136       	94.38808       	95.217606      	94.996216      	94.1715        	92.280136      	90.83207       	92.7309        	94.55341       	93.80636       	94.15328       	94.0194        	92.9644        	93.7498        	94.40164       	92.567535      	93.65179       	93.739975      	92.515495      	93.02418       	94.11058       	93.27216       	94.10041       	93.76027       	93.2956        	93.962166      	93.451744      	93.23991       	94.1211        	93.45971       	93.28653       	93.909424      	93.04847       	93.197784      	93.605606      	92.73051       	93.831985      	94.10497       	93.37627       	93.814095      	93.535416      	92.84472       	93.63238       	94.559326      	93.41698       	94.296875      	93.11979       	92.22851       	93.80345       	93.37041       	92.90223       	93.85127       	94.03195       	93.64474       	94.3672        	93.79727       	93.88057       	94.701225      	93.363235      	94.27796       	94.25961       	93.51737       	93.49052       	94.183685      	93.22371       	94.31611       	93.855255      	93.280106      	94.21502       	93.60982       	93.20499       	94.00555       	93.85231       	93.59476       	93.75163       	93.57697       	93.45845       	94.33871       	93.136406      	93.44798       	94.07885       	93.356026      	93.108086      	93.78784       	92.71889       	93.10961       	93.53643       	92.981         	93.53399       	93.77222       	92.65777       	93.08353       	93.69979       	93.8836        	93.580086      	93.281876      	
93.23869       	93.15678       	93.52917       	93.087776      	93.024864      	93.31304       	92.58214       	93.55644       	93.71285       	93.016075      	91.41724       	92.36902       	91.75244       	92.43953       	93.2869        	92.38359       	92.689995      	92.934326      	92.387856      	93.57225       	93.09101       	92.61266       	93.385864      	93.485916      	93.56579       	94.257095      	93.957596      	93.893486      	94.26867       	93.983734      	92.59071       	92.35804       	92.51773       	93.220566      	93.824066      	93.52387       	92.80282       	92.31954       	92.87454       	92.96342       	93.396         	93.34973       	93.02886       	93.95134       	93.61254       	93.42961       	93.9086        	93.045006      	92.66533       	93.49141       	93.51165       	93.31998       	93.281136      	92.65402       	93.56515       	93.78894       	93.87009       	93.42498       	93.05177       	93.00523       	92.83444       	93.27328       	93.47816       	93.24264       	93.09508       	91.7798        	93.095146      	93.273796      	93.07918       	93.296265      	91.82321       	92.56984       	92.924065      	92.88161       	92.25485       	93.0279        	92.47441       	92.07323       	92.52323       	92.02129       	91.46658       	92.212494      	91.84635       	92.31579       	92.934044      	91.2989        	91.10841       	92.06548       	90.59238       	91.27965       	92.40733       	91.01688       	89.92268       	91.06569       	91.64147       	92.61502       	93.59541       	93.20305       	92.46396       	91.883965      	
92.21303       	91.776596      	92.65287       	93.107574      	92.06339       	92.85981       	92.3956        	93.06034       	93.31151       	92.50884       	92.349045      	92.64875       	91.50188       	92.61649       	93.06539       	92.28557       	92.851006      	92.46962       	91.726814      	92.13822       	91.834755      	90.99086       	91.926834      	92.47241       	91.78913       	92.712326      	91.579666      	92.5537        	92.92163       	92.057175      	92.34258       	92.73394       	91.5628        	92.04618       	92.93775       	92.239456      	92.58207       	92.8128        	92.24044       	93.14286       	92.423546      	91.80101       	92.72904       	92.54583       	91.74406       	92.2624        	91.888504      	92.01339       	92.77196       	92.37392       	91.9675        	92.95365       	92.60699       	92.67688       	92.40031       	91.96349       	92.35115       	93.14255       	92.24959       	93.00167       	93.00494       	92.14852       	92.83573       	92.74482       	92.06042       	91.67663       	92.76161       	92.58745       	93.23097       	93.33358       	92.5077        	93.479095      	93.13067       	92.66029       	93.77526       	93.07773       	92.21087       	93.88294       	93.41136       	92.64506       	94.138596      	92.58216       	92.555984      	93.65693       	92.72398       	92.4659        	92.86523       	92.44312       	92.87653       	93.40648       	92.70875       	92.87557       	90.816216      	89.67103       	92.777374      	93.57222       	93.3074        	93.48136       	93.70344       	93.51106       	
93.87333       	93.70778       	93.87427       	93.11419       	93.87348       	94.36834       	91.92042       	93.52601       	93.17034       	92.9982        	93.94522       	93.18706       	92.95497       	93.863785      	93.59218       	93.44941       	94.43898       	94.386         	93.83586       	94.5299        	92.85615       	93.42174       	94.10402       	92.52507       	93.1829        	93.8251        	93.34282       	94.79273       	93.9653        	93.52874       	93.721275      	93.5944        	92.91165       	94.25047       	93.16511       	92.90182       	94.13695       	92.918755      	93.63575       	94.34189       	93.42651       	94.03955       	93.340645      	93.59786       	94.14693       	94.237495      	92.88131       	93.74507       	94.484375      	93.41682       	94.38114       	93.91423       	93.20337       	94.02498       	93.42241       	93.33179       	93.77558       	93.00182       	93.432175      	93.42578       	92.73952       	93.07221       	94.01508       	93.17962       	93.34587       	93.66066       	92.261505      	93.20611       	93.81182       	92.91442       	93.76872       	93.32589       	92.31308       	93.67321       	93.431595      	93.366035      	94.02087       	92.89948       	93.12292       	93.36084       	93.447556      	93.08769       	93.49397       	93.33603       	92.97307       	94.43529       	93.85009       	93.85425       	93.38054       	92.30974       	92.40512       	92.83758       	91.96821       	92.66383       	94.05673       	92.80506       	93.36662       	93.8357        	93.82377       	94.06752       	
92.94579       	92.99373       	93.53922       	92.83513       	93.235306      	93.23598       	92.90364       	93.96662       	92.875404      	93.15108       	93.40257       	92.994064      	92.4936        	93.63435       	92.6739        	92.63896       	93.758896      	93.188484      	93.26474       	93.81694       	93.56925       	93.53535       	93.81662       	93.65849       	93.95808       	93.97656       	94.11934       	95.275154      	94.70393       	94.02693       	94.69826       	94.320404      	94.526215      	95.09676       	94.32856       	94.68873       	95.24787       	94.29731       	94.63013       	94.01807       	91.734985      	93.71748       	94.966415      	93.91451       	94.062164      	94.06654       	94.23497       	94.301094      	94.163055      	93.74983       	94.17736       	93.974724      	94.02409       	94.699875      	93.77877       	94.31132       	94.43771       	93.79377       	94.425735      	94.70173       	94.48304       	94.289795      	94.4981        	93.38905       	93.80116       	93.68411       	93.67619       	94.39547       	94.14111       	93.76431       	94.81428       	93.60509       	93.963264      	94.81585       	93.696335      	94.03526       	94.60684       	93.354034      	93.28663       	93.908485      	93.25026       	93.74332       	94.550545      	93.75879       	94.14753       	94.14662       	92.914215      	93.44484       	94.14389       	92.36484       	93.441696      	93.14537       	92.985275      	93.391884      	93.16121       	93.71436       	93.892334      	93.83196       	93.89936       	93.07862       	
90.603325      	90.72155       	91.15608       	91.44567       	91.04634       	90.76855       	91.06628       	90.96476       	91.2564        	91.09293       	91.22981       	91.62641       	91.30919       	90.851524      	90.87196       	91.47677       	92.02286       	90.99832       	91.21168       	92.16177       	91.82633       	91.9093        	90.84266       	89.38444       	90.98046       	91.848724      	90.91956       	89.45214       	90.83903       	91.80354       	92.76862       	91.9196        	92.36701       	93.378136      	92.37793       	92.74206       	92.53718       	92.49074       	91.970085      	92.09361       	89.9375        	92.14135       	93.526474      	92.02249       	93.066086      	92.81381       	92.28566       	92.85031       	93.78814       	92.499504      	93.38405       	93.01213       	92.6335        	93.23219       	92.92781       	92.51907       	92.95304       	92.9318        	93.2356        	94.236824      	93.21916       	92.79721       	93.91284       	92.398796      	92.23437       	93.670616      	92.11116       	92.85168       	92.956856      	93.10083       	93.4686        	92.15555       	91.190445      	93.71573       	93.695015      	92.4414        	93.71666       	93.60006       	92.66249       	93.27278       	92.97414       	92.65738       	92.43415       	90.89407       	92.42941       	93.77665       	92.09497       	92.557076      	93.48506       	92.79476       	93.06408       	93.69184       	92.76172       	93.215935      	94.02082       	92.814445      	93.09558       	93.500565      	93.61888       	93.42349       	
92.63192       	93.19939       	92.75387       	92.22185       	93.04375       	92.413506      	92.20093       	92.4497        	92.65067       	91.85861       	93.126625      	92.94054       	93.52054       	92.84466       	92.58837       	92.936676      	92.980515      	92.23097       	93.36256       	93.336006      	93.24831       	93.077896      	92.27288       	89.33919       	89.896324      	92.422745      	92.526085      	91.65197       	92.56534       	92.191536      	92.78617       	92.835335      	92.69629       	93.44462       	92.65641       	92.74781       	93.38529       	93.24332       	92.75717       	93.26205       	93.36525       	93.33163       	94.026085      	93.12582       	92.980255      	94.26489       	93.869644      	94.444984      	94.48209       	93.72993       	93.26275       	94.5542        	93.833534      	92.371414      	93.34052       	94.171234      	94.57031       	94.64141       	94.382         	94.57268       	94.55043       	93.46371       	94.362045      	94.095024      	94.339355      	95.36138       	94.02237       	94.31395       	94.653854      	94.312836      	94.49782       	94.94666       	94.1899        	94.41654       	94.90805       	94.30077       	94.84392       	95.200554      	94.62452       	95.33952       	94.96247       	94.8407        	92.935585      	91.37989       	91.57757       	94.73466       	95.05144       	94.53737       	94.1808        	94.29215       	94.46546       	95.07004       	95.27564       	95.00679       	93.47145       	92.00185       	93.98076       	95.233604      	94.976074      	94.72225       	
92.121475      	91.788216      	91.802055      	92.18096       	91.48088       	92.28962       	92.33809       	92.42534       	93.0743        	92.71193       	92.41487       	93.11382       	93.26264       	92.187325      	92.3263        	92.33509       	92.650635      	92.99616       	93.05013       	92.76006       	93.29351       	92.61992       	92.54574       	91.013374      	89.9853        	91.86502       	92.56996       	91.924644      	92.142975      	91.99712       	92.12025       	92.81835       	92.30575       	92.127426      	92.31173       	92.6242        	93.07476       	92.8554        	93.47498       	93.012764      	93.39022       	93.28419       	93.23597       	93.37487       	93.07386       	92.79143       	94.18706       	93.912         	93.59865       	94.26236       	94.23364       	94.13172       	94.16061       	93.82258       	93.58508       	93.60551       	93.85584       	94.24721       	94.14274       	94.01877       	93.58363       	94.18738       	94.04919       	94.44718       	93.659225      	94.447334      	93.5132        	94.26454       	94.23286       	94.16549       	93.99637       	94.345055      	94.038155      	93.83742       	94.203354      	93.44465       	93.984726      	94.45334       	94.15889       	94.62531       	94.7988        	94.82197       	93.076996      	90.836075      	91.01362       	93.53087       	94.04325       	93.76215       	94.18127       	93.58606       	93.89022       	93.86036       	94.49765       	93.93582       	93.722534      	92.02518       	93.191414      	93.89843       	93.8699        	93.5558        	
92.362305      	92.01062       	92.29447       	92.15227       	91.55136       	92.642075      	92.91674       	93.02706       	92.72714       	92.39094       	92.79675       	93.20737       	92.35127       	92.8003        	93.36838       	92.92211       	92.74637       	91.44282       	93.03688       	93.37605       	93.23353       	92.97945       	92.55017       	92.94843       	93.15699       	92.83813       	93.399666      	93.01336       	93.58257       	92.25823       	91.867714      	93.0133        	93.109985      	92.858185      	93.51042       	93.58444       	93.16124       	93.03273       	93.11264       	93.24284       	93.301216      	93.68989       	94.094154      	93.26615       	92.97848       	92.65768       	93.480064      	92.920746      	92.72598       	93.27205       	92.86914       	92.63216       	93.17391       	93.07368       	93.21772       	93.42943       	92.646416      	93.042885      	92.1906        	91.573616      	92.90683       	93.04121       	93.53158       	93.09354       	93.13734       	93.05009       	93.12409       	92.95768       	92.80045       	92.61995       	92.505875      	92.5218        	92.72331       	92.819756      	92.426765      	91.99727       	91.57528       	91.60772       	91.81115       	91.40811       	91.79281       	92.195625      	92.43116       	92.59078       	92.193695      	92.22136       	92.48555       	91.889656      	92.05457       	91.91454       	92.28151       	92.08904       	91.964165      	92.03224       	92.02941       	91.889435      	91.787224      	92.20006       	91.92833       	92.14891       	
92.29028       	92.643974      	92.8216        	93.47689       	92.95364       	92.57769       	93.04717       	93.058876      	92.61516       	92.80173       	92.412735      	92.94142       	93.19472       	92.77954       	92.81972       	93.018936      	92.05861       	90.49201       	93.15418       	93.22998       	93.28266       	93.56623       	93.43975       	92.90114       	93.69475       	92.907875      	92.89842       	93.377335      	93.17514       	93.46647       	93.43645       	93.427086      	93.85163       	94.0901        	94.556595      	93.919525      	94.22093       	93.82215       	92.708244      	93.56243       	93.65353       	93.54433       	93.63045       	93.71783       	93.97449       	94.37299       	93.71428       	93.69826       	94.68242       	94.37519       	93.53169       	94.560005      	93.96052       	94.409775      	94.43094       	93.04272       	94.2001        	94.973404      	94.72253       	94.20297       	94.91731       	94.92079       	94.983185      	94.502106      	94.39179       	93.95891       	94.10975       	94.61592       	94.569626      	94.66157       	94.52548       	94.99226       	95.009125      	95.10889       	94.41539       	95.07914       	93.97696       	93.69914       	95.00917       	94.44606       	95.00255       	94.27612       	94.553535      	94.52984       	94.86417       	95.01127       	95.185356      	94.91614       	94.794846      	94.63375       	94.99505       	94.60269       	92.887054      	94.99507       	94.60055       	94.3328        	94.781136      	95.20325       	95.110146      	94.65296       	
91.79184       	91.92664       	91.63099       	91.526855      	91.45756       	90.871445      	91.21413       	90.99388       	91.388626      	91.82945       	91.903915      	91.69283       	92.62364       	92.12916       	91.17943       	92.09921       	92.41271       	92.569244      	92.63326       	92.30789       	92.95776       	92.64746       	92.44068       	92.6518        	92.2032        	91.83231       	92.85474       	92.630684      	92.91162       	93.54138       	92.92407       	93.005005      	93.02363       	92.669         	93.11124       	93.73987       	93.303925      	93.01535       	92.9404        	93.07545       	93.22759       	92.971176      	93.380005      	93.18441       	93.108475      	93.960625      	93.49154       	93.01461       	93.25561       	90.18703       	89.16454       	89.760216      	91.96122       	92.520966      	92.573074      	92.35584       	92.13447       	92.58044       	92.70269       	92.55534       	91.31562       	92.30827       	92.6469        	92.36579       	92.02828       	92.66305       	92.468506      	91.550705      	92.48489       	92.22603       	92.482796      	92.39368       	92.764565      	92.63282       	92.18243       	92.47563       	92.87701       	92.83759       	91.89511       	92.74139       	92.84395       	92.70506       	91.47951       	91.78541       	92.807205      	92.02333       	92.521286      	92.204796      	92.3048        	92.81477       	92.513145      	92.94048       	92.64623       	92.91167       	92.72545       	92.8603        	93.24622       	92.93542       	92.67091       	92.62483       	
90.900925      	92.77155       	92.75941       	92.5509        	92.61253       	92.45057       	92.49936       	92.65035       	92.60346       	93.14324       	93.36961       	93.11407       	93.627144      	93.57195       	92.88423       	94.04219       	93.62936       	90.680984      	92.08678       	93.558075      	93.52799       	93.354614      	92.95299       	92.84856       	93.50411       	93.03431       	92.64595       	93.15649       	93.08766       	93.44739       	93.17241       	93.06461       	93.08607       	93.25045       	93.94661       	93.14425       	93.18156       	93.001305      	92.83879       	93.23748       	93.57296       	93.3774        	92.54389       	92.58566       	92.75977       	92.74378       	92.933945      	92.44857       	93.002594      	90.172844      	87.778305      	88.81328       	91.61937       	92.61755       	91.75383       	92.85182       	92.62885       	92.93596       	92.68426       	92.94142       	92.95084       	92.97652       	92.96974       	93.6412        	93.17879       	91.11462       	92.728424      	93.488785      	93.227875      	92.88372       	93.7119        	93.09037       	93.10726       	92.609795      	93.20455       	93.546295      	93.471794      	93.40992       	92.889755      	92.60589       	92.37703       	92.02943       	92.465744      	91.76807       	92.57213       	92.51366       	92.57983       	91.798325      	91.362495      	92.0913        	92.54328       	93.23515       	93.37029       	93.42835       	93.44405       	93.20195       	93.38283       	93.499405      	93.91745       	94.061554      	
90.79122       	92.94995       	94.0054        	93.617065      	94.121414      	93.801796      	93.59858       	93.88807       	92.983025      	90.91036       	91.783066      	92.94345       	93.76195       	93.60926       	93.49584       	93.957596      	93.58074       	91.91373       	92.18119       	93.62126       	93.6423        	94.59516       	94.075615      	94.01413       	93.46366       	93.2802        	93.268875      	93.96659       	93.80439       	93.69697       	93.85157       	94.51535       	93.44937       	94.53207       	94.60506       	94.57643       	94.48502       	93.56998       	94.04138       	94.2201        	94.27155       	94.27015       	94.805084      	94.55478       	94.61373       	94.937706      	95.11641       	94.862114      	94.539215      	92.371475      	90.57597       	91.13529       	92.91431       	94.16127       	94.69719       	94.26226       	94.40386       	94.60607       	93.76983       	93.990105      	94.33317       	94.14979       	94.917435      	94.21042       	93.55942       	93.57569       	93.61281       	94.06456       	94.06485       	93.9972        	93.56055       	93.50562       	93.79558       	93.03496       	93.08239       	94.259315      	94.18504       	93.56832       	94.039055      	94.137535      	94.12962       	94.30063       	94.02621       	93.36442       	93.77861       	93.40685       	93.24594       	93.27999       	91.93739       	91.87857       	92.908905      	92.87508       	92.86096       	93.518684      	92.78357       	93.103584      	93.1824        	93.12725       	93.714516      	93.58072       	
90.108925      	91.59687       	91.61055       	92.110664      	91.6562        	91.96251       	91.34004       	90.98632       	90.64726       	88.24953       	86.8258        	90.017456      	91.209595      	91.82005       	91.9038        	92.0564        	91.62068       	92.8344        	92.85249       	92.60278       	92.745255      	92.71265       	92.54494       	91.99234       	92.40486       	92.45055       	93.114         	92.531075      	92.29542       	92.36339       	91.71769       	92.54199       	91.35533       	93.010574      	92.99435       	93.08382       	92.723434      	92.88455       	93.8567        	93.631355      	93.43767       	93.54887       	93.36037       	93.0585        	93.15296       	93.56743       	93.304756      	93.50583       	94.185616      	93.86297       	93.80257       	93.579506      	94.16086       	93.92046       	93.51049       	93.591934      	93.19808       	93.26062       	93.560425      	93.288086      	92.734856      	93.59462       	93.11199       	93.33435       	93.79684       	93.77575       	93.64989       	91.96878       	93.17467       	93.31817       	92.702644      	93.04068       	93.029465      	92.299446      	92.684784      	93.05336       	92.39259       	92.88884       	93.60409       	93.52785       	93.70285       	94.27153       	93.67651       	93.81342       	93.767784      	93.87238       	93.71184       	93.90107       	94.17553       	94.809814      	94.799034      	93.974846      	94.33855       	94.63531       	95.207344      	95.06725       	95.44111       	95.294174      	94.89495       	95.18705       	
93.11681       	93.23067       	93.724594      	92.85705       	92.895676      	92.87177       	92.41908       	92.593765      	93.55061       	92.34895       	90.804474      	92.51684       	93.788895      	94.104546      	93.586555      	93.35229       	93.9748        	92.78388       	93.400604      	93.8945        	92.715645      	92.76256       	93.55041       	93.53267       	93.90224       	93.52486       	93.54009       	91.5876        	92.55199       	93.03386       	93.44968       	93.752266      	93.58434       	94.076904      	93.7198        	94.001335      	93.43826       	93.893196      	93.85094       	93.468346      	94.375244      	93.348335      	93.817635      	93.65027       	94.17848       	93.98642       	93.22979       	93.48812       	93.43399       	93.99257       	93.924675      	93.6967        	94.17691       	94.41065       	93.903336      	94.19606       	93.40107       	93.70926       	93.39981       	92.98323       	93.372284      	93.28678       	93.30327       	93.81074       	94.043686      	92.94245       	93.372284      	93.208015      	92.5702        	93.666176      	93.07858       	92.5994        	93.07194       	93.22889       	93.32996       	93.00434       	92.90389       	92.64088       	93.43206       	92.9368        	93.30865       	93.96997       	93.378105      	92.91996       	91.82336       	92.19117       	92.4512        	92.48555       	91.96875       	92.01571       	92.025566      	91.28747       	92.0245        	92.874374      	91.84142       	91.9399        	92.08135       	92.378006      	91.898964      	91.83965       	
94.26466       	93.41125       	93.75338       	93.30807       	93.8477        	94.675186      	92.92934       	93.152695      	93.77373       	93.59065       	92.97374       	94.14662       	94.0963        	93.19927       	93.49842       	93.83805       	93.56711       	94.02787       	93.23465       	91.3446        	93.24235       	92.97155       	93.096405      	93.238716      	93.39598       	93.18304       	93.737274      	93.25286       	93.43358       	93.82837       	93.326416      	93.05174       	92.27513       	92.71384       	93.18702       	93.001755      	92.90221       	93.34089       	93.10239       	91.88527       	91.749115      	93.1709        	92.469025      	92.907196      	91.9628        	92.684         	93.07824       	93.44108       	93.310234      	93.34883       	92.84999       	92.450836      	93.2961        	92.86116       	92.992645      	93.69038       	92.66902       	93.220215      	93.20853       	93.06291       	93.008         	93.46439       	93.23653       	94.06672       	94.14871       	93.372604      	93.35627       	93.16328       	92.89497       	92.45361       	92.67471       	92.54835       	91.7271        	91.75171       	91.58826       	91.38245       	91.84038       	91.82568       	91.82055       	92.57923       	92.49883       	92.180695      	92.167046      	91.907394      	91.67198       	91.96114       	91.41488       	91.3822        	91.76918       	92.12082       	91.979546      	91.89247       	91.50998       	92.49677       	92.45739       	92.46443       	92.34637       	92.86766       	93.000626      	92.32716       	
94.6206        	93.40146       	93.75171       	94.00643       	93.62814       	94.179405      	94.35726       	93.97934       	93.59067       	93.35493       	93.602455      	93.715294      	93.69856       	93.35263       	93.65367       	93.60604       	93.70378       	94.343         	94.391045      	92.58992       	93.85807       	94.67489       	95.0786        	94.898026      	95.3347        	94.9117        	95.31304       	95.00308       	95.37883       	95.150665      	93.9831        	95.19008       	95.645035      	95.64886       	94.73713       	95.040054      	95.230034      	94.24545       	94.81843       	94.89827       	94.92038       	94.3694        	94.93218       	94.8013        	93.85109       	94.74964       	94.362686      	95.30741       	95.064384      	96.116714      	95.204544      	94.75267       	94.94947       	94.458786      	95.05437       	94.62078       	94.83155       	95.25268       	93.73096       	93.56805       	94.01249       	94.16865       	93.87938       	93.88843       	93.86281       	94.30249       	94.217316      	93.889824      	94.48912       	94.49256       	94.19572       	94.61095       	94.88939       	93.90968       	93.95407       	93.84664       	94.41999       	94.15125       	94.196724      	91.28232       	91.052864      	92.31108       	94.01908       	94.39406       	93.57891       	93.47944       	94.358795      	93.61839       	94.00024       	94.14177       	94.10885       	94.12854       	94.053375      	93.564766      	93.907974      	94.64726       	94.79694       	93.988754      	93.86311       	93.56596       	
93.862885      	94.06235       	94.22172       	94.276375      	94.03227       	94.43849       	93.57449       	93.75461       	94.38902       	94.368935      	93.43102       	94.200005      	93.90865       	93.39403       	93.98304       	93.46863       	93.08232       	93.323616      	93.5684        	93.16631       	94.13679       	93.18403       	93.837975      	93.53908       	93.15614       	93.44055       	93.820564      	93.08621       	93.20537       	92.916595      	93.46851       	93.72316       	93.99602       	93.93434       	94.63075       	94.69367       	93.991295      	93.57752       	94.26994       	93.2945        	93.480484      	93.39934       	93.46864       	94.10111       	93.73199       	94.39593       	94.8766        	94.236         	94.74535       	95.809586      	95.0179        	95.007614      	95.231125      	94.430016      	94.355415      	94.971756      	95.23145       	94.83289       	95.72782       	95.14244       	95.60149       	95.67554       	94.96432       	95.889336      	95.68004       	94.68873       	95.336105      	95.96498       	95.12948       	95.27234       	95.320564      	95.243744      	96.52527       	95.7282        	95.51994       	95.593155      	94.77257       	94.888374      	95.42192       	91.35711       	90.28696       	92.51828       	93.98622       	94.8897        	94.47543       	94.64567       	94.79286       	93.985596      	94.22708       	94.90101       	93.989265      	93.7766        	94.13173       	94.006195      	93.41875       	93.50722       	93.9951        	94.33638       	94.11951       	94.20578       	
92.87884       	90.739586      	92.59621       	93.35912       	93.12789       	93.195564      	93.48059       	91.080215      	89.43537       	91.62151       	92.36574       	92.132484      	93.015816      	92.33183       	92.67262       	93.011665      	93.10619       	92.96266       	91.98221       	90.9091        	92.96805       	92.85831       	93.305855      	93.929726      	93.96171       	93.562744      	93.48288       	93.38126       	93.14925       	93.306885      	93.049774      	92.87531       	93.31579       	93.929726      	93.63936       	94.020226      	94.14421       	93.47867       	93.5595        	93.12556       	92.85153       	93.23195       	93.49174       	93.20287       	92.88078       	93.327194      	93.06416       	93.371414      	93.66248       	93.3123        	93.54383       	93.68669       	93.51336       	93.28045       	93.14749       	93.11823       	93.012726      	92.388054      	92.564995      	92.714645      	93.09073       	92.6693        	93.04342       	93.42394       	92.49427       	93.13549       	93.1326        	91.78659       	92.74321       	93.03814       	92.69698       	92.80313       	93.791985      	92.717575      	93.11547       	93.09884       	93.68613       	93.54952       	93.26442       	91.14218       	89.08175       	91.22          	92.75693       	93.283646      	91.78272       	92.4778        	92.93397       	92.64562       	92.905754      	93.08415       	93.32152       	92.59237       	93.17549       	93.29296       	93.03099       	93.27262       	92.87692       	91.23947       	91.88249       	92.77401       	
92.91501       	89.85973       	90.26932       	92.715996      	93.099495      	92.70456       	92.22          	92.02049       	90.21738       	91.612015      	93.53432       	93.17101       	93.01461       	93.09843       	93.16049       	92.85188       	93.569214      	93.53741       	92.8013        	93.01634       	92.49159       	92.27937       	93.010544      	93.3559        	92.95485       	93.85866       	92.799126      	92.25157       	92.520004      	92.09376       	92.146126      	92.91672       	93.513824      	92.335205      	91.39971       	92.53988       	92.77817       	92.78854       	91.96876       	91.41668       	91.37064       	92.09464       	92.35329       	92.309654      	91.59223       	91.49023       	92.264565      	92.16654       	92.54703       	92.1468        	92.21193       	92.03528       	92.38246       	92.49055       	91.24623       	91.73198       	91.923355      	91.382614      	91.07598       	90.74584       	90.81041       	91.35387       	91.59903       	91.60361       	91.51999       	91.40087       	91.40337       	92.33803       	92.15926       	91.99576       	92.237656      	92.32423       	92.05614       	92.35738       	92.0193        	91.841385      	92.25694       	92.03056       	92.32492       	92.88347       	92.758675      	93.120476      	93.66333       	93.36267       	93.35145       	93.963264      	93.16933       	93.017876      	93.70737       	93.19918       	93.15024       	93.12725       	93.64987       	93.09717       	93.54334       	93.86316       	92.91963       	90.511925      	90.486855      	92.43039       	
93.701775      	92.99451       	91.32598       	93.86144       	93.774956      	93.89479       	93.42815       	93.45475       	93.25229       	93.16366       	93.60493       	93.21948       	94.003716      	94.25211       	93.85149       	93.99582       	93.877914      	93.78326       	93.77237       	94.43739       	94.298836      	94.55858       	94.607376      	94.58631       	94.31189       	94.35429       	94.64202       	94.67953       	94.732544      	94.27924       	94.228806      	95.21901       	94.224045      	91.85577       	91.783775      	92.677315      	94.63399       	94.70871       	94.25704       	93.5569        	93.78509       	93.80492       	93.97187       	93.36854       	94.194786      	93.767204      	94.070145      	93.695724      	93.15883       	93.9393        	94.238884      	94.29526       	94.551025      	94.595856      	93.836006      	93.55478       	94.53548       	93.67492       	93.84466       	94.290855      	94.029945      	93.99732       	94.347466      	94.06514       	93.893524      	94.19165       	93.539635      	94.24516       	93.56958       	93.47588       	93.87493       	94.09598       	93.76374       	93.3665        	93.407555      	93.76542       	93.33913       	93.155754      	93.75199       	94.065704      	93.84374       	93.689804      	94.50477       	94.52083       	93.092094      	94.22778       	93.80721       	93.22188       	93.83507       	93.19394       	93.3204        	93.30868       	93.40986       	93.39042       	93.683784      	93.99641       	91.34753       	89.49865       	89.65214       	91.69242       	
93.55253       	92.62991       	92.94943       	93.450966      	93.26791       	93.18495       	92.84554       	92.77685       	93.190445      	93.33605       	93.16443       	93.47926       	92.16772       	92.30302       	92.99353       	92.5879        	92.566315      	93.06044       	93.23902       	92.25231       	92.97968       	92.791         	92.95401       	93.12938       	92.805756      	93.24193       	93.04544       	93.00773       	93.293175      	93.79378       	93.13261       	93.04508       	93.695015      	90.31613       	89.99841       	91.43138       	93.24935       	93.9722        	92.19763       	91.84892       	93.47107       	93.05329       	92.67502       	93.26973       	93.034256      	92.09807       	92.99769       	93.12853       	92.77635       	92.8524        	93.34481       	92.361664      	92.78984       	92.81075       	93.047615      	93.00964       	92.35168       	92.78645       	93.34602       	92.06441       	92.65435       	93.50174       	92.32159       	92.22761       	92.451904      	92.38924       	92.980675      	92.18071       	92.835         	93.34992       	91.58271       	91.7903        	93.63424       	93.69316       	93.19007       	93.72356       	93.3763        	93.317955      	93.96949       	93.91692       	93.79813       	94.00084       	93.93693       	93.834564      	94.29785       	94.56022       	94.78052       	94.45859       	94.10746       	94.47121       	94.11329       	94.22457       	94.37364       	93.853264      	94.049736      	95.02396       	94.102135      	92.48205       	92.28859       	93.15858       	
92.48689       	93.36632       	92.89347       	93.70296       	93.023735      	92.832726      	92.83271       	92.8626        	92.94514       	93.622925      	93.60079       	92.51331       	92.54501       	92.780594      	93.44191       	93.387924      	93.39574       	93.11987       	93.588585      	93.43893       	93.26501       	94.05322       	93.961235      	92.818146      	93.25082       	92.8766        	92.50305       	93.251144      	92.36412       	91.986435      	92.69093       	93.741035      	93.230156      	93.57997       	93.47944       	93.29243       	93.63649       	92.78678       	92.406166      	93.1834        	92.1441        	92.867134      	93.27924       	92.11852       	91.88524       	92.40794       	92.8368        	93.13502       	92.62748       	92.70101       	93.41231       	94.087296      	93.08111       	93.351685      	93.329605      	92.633125      	92.37415       	93.56685       	92.42135       	92.49076       	92.75021       	92.96703       	93.41904       	92.6306        	93.24737       	93.09474       	92.60184       	92.37089       	90.52562       	92.19179       	90.4277        	90.074104      	92.32742       	92.32691       	92.419464      	92.09653       	92.14474       	92.23043       	92.5164        	92.21612       	91.84248       	92.23619       	92.395294      	92.22774       	92.21029       	91.67651       	92.53763       	92.3945        	92.25758       	92.496704      	92.16732       	92.427864      	91.66025       	92.52525       	92.507324      	92.701065      	92.75707       	93.088066      	93.10179       	93.17988       	
92.35236       	93.36546       	93.12769       	93.60763       	93.113075      	93.54825       	94.37662       	93.12688       	93.36097       	93.76988       	93.56019       	93.00028       	93.43962       	93.479485      	93.81294       	94.3953        	94.378265      	94.29174       	94.70086       	94.60477       	93.98553       	91.805214      	93.49477       	94.986206      	93.37879       	94.17151       	93.83509       	93.60682       	93.737434      	93.93242       	94.17677       	94.17908       	94.24519       	93.75479       	93.70442       	94.001335      	93.817955      	94.43815       	93.973175      	93.36101       	93.569786      	94.360634      	94.882095      	94.72043       	94.699554      	94.90633       	94.85657       	94.73828       	92.17785       	92.461044      	95.079575      	95.05074       	94.265045      	94.219696      	93.958626      	93.98462       	94.455605      	93.759674      	94.351944      	94.48153       	93.38502       	93.03931       	94.42741       	94.122         	94.14336       	94.26555       	93.74862       	94.4454        	93.707115      	93.482475      	94.28464       	93.89918       	93.83391       	93.55101       	93.72218       	93.32105       	93.86877       	92.49494       	93.07828       	92.9721        	93.208046      	93.23839       	93.449455      	92.931694      	92.29842       	92.70495       	93.13734       	92.57629       	92.72534       	92.36744       	92.07453       	92.48984       	92.79842       	92.52495       	92.71293       	92.967026      	92.7854        	92.773796      	92.83077       	92.954575      	
92.76456       	92.99166       	92.99252       	92.61175       	92.93625       	93.50208       	92.64467       	92.634575      	93.29759       	92.48074       	93.50533       	93.71535       	92.674194      	92.66329       	92.42873       	92.74248       	92.86788       	93.02876       	93.584145      	93.41369       	93.64928       	92.316055      	93.33679       	94.25782       	93.0077        	93.038666      	92.91849       	93.24231       	93.37613       	93.333046      	93.90048       	93.65965       	93.87113       	93.58759       	94.0883        	93.28486       	93.6815        	94.01273       	93.75556       	92.91182       	93.78617       	93.814285      	94.13506       	95.102776      	94.27654       	93.701065      	94.41976       	93.96097       	92.60689       	92.59683       	94.42109       	94.73931       	94.60674       	93.96505       	95.18312       	95.34651       	94.532585      	94.91828       	95.78418       	93.4643        	91.038704      	91.67404       	92.56908       	94.815926      	94.94789       	94.29317       	94.756645      	94.69923       	94.11514       	94.49524       	93.87147       	93.86752       	94.220955      	93.11804       	94.17069       	94.87924       	93.648964      	94.218506      	94.694374      	93.266754      	94.030815      	94.14998       	93.8           	94.544716      	93.15762       	92.198         	94.31097       	93.4832        	93.31787       	94.266884      	93.96496       	94.090126      	94.71459       	94.26088       	94.27934       	95.127495      	94.32761       	93.78959       	94.25734       	94.079865      	
95.341354      	95.97267       	95.90754       	95.82423       	96.19137       	95.949585      	96.00019       	95.99968       	96.04322       	95.87984       	96.224976      	96.17107       	96.171135      	96.77851       	96.657875      	96.98654       	97.25099       	96.37275       	96.678185      	96.694336      	96.29343       	96.89064       	96.90332       	96.992035      	96.46878       	96.48856       	95.812614      	95.65534       	97.006454      	96.19486       	96.77375       	96.71993       	96.3712        	97.23629       	97.8167        	96.73447       	97.70119       	97.05594       	96.97417       	98.14482       	97.148834      	97.57516       	97.7992        	97.56934       	96.984566      	97.55205       	96.57807       	96.74024       	97.118         	96.04146       	96.433014      	96.82601       	96.57211       	96.99186       	97.197624      	95.533134      	96.58731       	96.799446      	96.24491       	96.571365      	93.10216       	89.74035       	91.11246       	94.87073       	95.20857       	95.39584       	95.39413       	95.21713       	95.417206      	95.092         	94.7172        	94.891205      	94.77099       	94.33873       	94.3837        	94.37684       	94.394806      	94.45369       	93.93678       	94.696014      	94.673325      	94.15107       	94.91716       	94.380424      	93.281494      	92.74245       	92.802505      	92.34539       	93.08173       	92.99367       	93.37453       	93.710175      	93.06856       	93.28262       	93.43779       	92.750595      	92.80844       	92.712036      	92.66503       	92.72441       	
91.801155      	91.67097       	91.27931       	92.26817       	92.26982       	92.54112       	93.11805       	91.91263       	92.2788        	92.929726      	91.2934        	91.88935       	92.49307       	92.21915       	93.1234        	92.27735       	92.03421       	92.8128        	92.32022       	92.250534      	93.067184      	92.763794      	92.90101       	93.6427        	91.70291       	92.77277       	93.78592       	92.87199       	93.22521       	93.45318       	91.932686      	92.92615       	92.61434       	91.76724       	92.52337       	92.576004      	90.86588       	93.07593       	92.68443       	92.060585      	93.526115      	92.838936      	92.51739       	93.70882       	92.48497       	92.27835       	92.65943       	92.16133       	92.40101       	92.376205      	91.29796       	92.96922       	92.91885       	92.11956       	93.69422       	93.358795      	92.95817       	93.8033        	92.741165      	92.74589       	92.28568       	89.20879       	88.984856      	92.835335      	92.779205      	93.01962       	92.72241       	92.36572       	92.79789       	92.960556      	92.37857       	92.706894      	92.72901       	91.81084       	93.43774       	92.1558        	91.946335      	92.740814      	92.11339       	91.63078       	92.2948        	92.49439       	92.15529       	92.17067       	92.25448       	91.977936      	91.80831       	91.42953       	92.09474       	92.16568       	91.465256      	92.26488       	92.09171       	91.71577       	92.30754       	92.10159       	91.66778       	91.821785      	92.08945       	92.30781       	
91.58527       	91.82744       	91.79541       	91.81935       	92.17908       	91.86593       	91.88878       	91.762         	91.953804      	91.91039       	92.23071       	91.52958       	92.43588       	92.12622       	92.11165       	92.49757       	92.63965       	92.458176      	92.22987       	92.61938       	92.30156       	92.78889       	92.74491       	92.35423       	92.64975       	93.28048       	93.53516       	93.54088       	93.320465      	93.49739       	92.91663       	93.28715       	93.4624        	93.06279       	93.10434       	92.40559       	93.19219       	93.75984       	93.512886      	94.37809       	93.41258       	92.93718       	93.41551       	93.409065      	92.83995       	92.69795       	92.49207       	92.758514      	92.66731       	92.6478        	92.432976      	92.575005      	92.65112       	92.18388       	93.43495       	93.19832       	93.742935      	94.61637       	93.90962       	93.6814        	94.45765       	93.79951       	93.1103        	93.78173       	93.267426      	93.37102       	94.17761       	93.172066      	93.64918       	94.29162       	92.88334       	92.569244      	92.24157       	91.586716      	92.18165       	92.432495      	91.80929       	92.764946      	92.62212       	91.79902       	93.188385      	92.79435       	92.963974      	92.74376       	92.39035       	92.097         	93.13632       	92.600044      	92.10286       	91.67817       	92.26854       	92.00115       	92.82462       	92.78403       	92.3601        	93.28636       	92.1088        	91.189995      	91.75844       	91.99257       	
93.02507       	92.31474       	93.31806       	93.54804       	92.90906       	93.11219       	93.350655      	92.80388       	93.12066       	93.37629       	92.93259       	93.47438       	93.82741       	92.696976      	93.58532       	93.434814      	93.21241       	94.44328       	93.48813       	93.45128       	93.25697       	93.33276       	93.624176      	93.48282       	93.04817       	93.61785       	93.937126      	93.30842       	94.231735      	93.72674       	93.23753       	93.402435      	93.15297       	93.536835      	92.723076      	92.96304       	93.18682       	93.37322       	93.47735       	93.63432       	93.5393        	92.44212       	92.88794       	92.989784      	92.209145      	92.985344      	92.26863       	92.53155       	92.99803       	93.10411       	92.71329       	93.352554      	93.09509       	92.06823       	92.440384      	92.6073        	92.442955      	92.167496      	91.80073       	92.81319       	92.62369       	92.956474      	92.35079       	92.09135       	92.22173       	92.10513       	92.12315       	92.1434        	92.29186       	92.48553       	92.24674       	92.08034       	92.335686      	92.73384       	92.61362       	92.41532       	92.81867       	91.65113       	92.98528       	92.785484      	92.42826       	92.43161       	92.593666      	92.325066      	92.73129       	93.21976       	93.03056       	93.81497       	93.61877       	91.67091       	93.05594       	92.2729        	92.591255      	93.75257       	93.104485      	93.65868       	93.64746       	93.519394      	93.76899       	93.787636      	
94.105316      	94.83627       	94.526726      	94.547646      	94.44699       	94.826256      	93.142586      	93.39698       	94.645424      	94.553375      	95.02467       	95.10585       	94.95413       	95.45344       	95.56897       	94.79239       	94.84834       	92.991         	93.43675       	94.64406       	94.616135      	94.178925      	94.230865      	94.97873       	94.63636       	95.369545      	94.05953       	93.44965       	94.858116      	94.31437       	94.08159       	94.738266      	94.031044      	93.03342       	94.38954       	93.88407       	93.80407       	95.20097       	93.879845      	93.95055       	94.74323       	93.789604      	93.96326       	94.10287       	93.80669       	94.50087       	95.07474       	94.284195      	94.295815      	94.75705       	94.646286      	94.71719       	94.58651       	92.8796        	93.72399       	93.46815       	93.1821        	94.2847        	93.44911       	93.39897       	94.13249       	94.16389       	93.4132        	93.74344       	93.45794       	92.76286       	92.98909       	92.59029       	92.57734       	93.128044      	91.97997       	92.186775      	92.527084      	92.00924       	93.09614       	92.92427       	92.33126       	92.80756       	92.70928       	92.163246      	93.05803       	92.595474      	91.94775       	92.44258       	91.96901       	92.05677       	92.57857       	92.30641       	91.40983       	92.107124      	92.01498       	92.36539       	93.054924      	92.4102        	92.07003       	91.95228       	92.19161       	91.87594       	91.62556       	91.96324       	
91.468956      	92.874176      	92.46746       	92.30412       	92.41198       	91.0191        	87.8273        	88.185135      	88.97677       	91.558         	92.88063       	92.402756      	91.693085      	91.987495      	92.22391       	92.09818       	92.38658       	91.993965      	91.78696       	92.554184      	91.82435       	91.6758        	92.434944      	90.89057       	90.08892       	91.79786       	91.34248       	91.6529        	92.25093       	91.98588       	92.021576      	92.30172       	91.764946      	92.574455      	92.31487       	92.19034       	93.18392       	92.40004       	91.962204      	91.29857       	93.19787       	93.5548        	93.356964      	93.73324       	93.425934      	91.53893       	88.949936      	93.2628        	93.638725      	92.33016       	92.94306       	93.11994       	92.61964       	92.60143       	92.798546      	92.66219       	92.28148       	93.0351        	92.97824       	93.15827       	93.74385       	93.46811       	93.38427       	93.26384       	93.23617       	93.976074      	93.82523       	92.739456      	93.51662       	93.336716      	92.75334       	93.53641       	93.52357       	93.20647       	92.76738       	92.899254      	92.87549       	93.46305       	93.035904      	92.71331       	93.32797       	93.29598       	93.735146      	94.28707       	93.8551        	93.433395      	92.50402       	93.197014      	93.80238       	94.03173       	93.10174       	93.64941       	93.60868       	93.41246       	93.73713       	94.44949       	94.32629       	93.63039       	93.93092       	94.01628       	
92.59229       	92.57743       	93.40437       	93.61356       	93.258675      	92.81035       	90.46357       	88.51469       	90.06306       	93.172005      	93.149605      	93.28749       	92.62691       	92.74863       	93.25288       	93.011345      	93.55502       	94.10827       	94.356804      	93.124794      	93.43039       	93.31579       	93.426704      	93.40821       	93.51367       	94.03986       	93.496735      	93.80408       	93.89118       	93.050224      	93.90799       	94.28218       	92.54731       	92.49175       	93.291534      	93.07476       	93.503456      	93.39739       	92.61646       	90.37232       	92.09993       	93.35604       	92.66002       	93.58288       	94.46381       	91.58935       	90.33261       	94.40376       	94.547005      	94.22133       	94.143295      	94.07816       	93.43535       	93.50029       	93.45056       	93.2235        	92.9629        	92.85124       	92.20234       	92.72558       	92.79302       	92.49073       	92.97663       	92.81883       	92.92618       	92.92964       	92.59176       	92.38634       	92.27581       	92.80889       	93.32874       	92.881485      	93.19488       	93.182304      	91.76116       	92.20923       	93.24777       	93.85066       	92.93924       	93.11405       	92.91961       	92.74962       	93.00619       	93.04654       	93.04928       	93.068756      	93.32804       	92.54896       	93.64356       	93.898735      	93.50113       	93.420235      	93.30693       	91.63274       	93.68236       	94.45125       	93.854034      	93.21428       	93.48375       	93.987885      	
94.4163        	94.46949       	94.72639       	94.631905      	94.52668       	95.12935       	93.41997       	91.46716       	93.00553       	95.408775      	95.02945       	94.80698       	94.564766      	94.4679        	94.17423       	93.90731       	94.606255      	94.965096      	94.4507        	94.52349       	95.352455      	95.116936      	95.19732       	95.50281       	95.08377       	95.39571       	94.71632       	94.30297       	95.40658       	94.10726       	95.09897       	96.23514       	95.00916       	94.5828        	95.20528       	94.667046      	94.56308       	94.828705      	95.43027       	95.78146       	95.37145       	95.197426      	95.65608       	95.26199       	94.44202       	95.705215      	95.385124      	94.90142       	96.34413       	95.60727       	94.927605      	95.64806       	94.784805      	95.39766       	95.252556      	94.96077       	95.2559        	95.81762       	95.877144      	95.88744       	96.28788       	95.67866       	95.3929        	95.51784       	95.16117       	95.79688       	95.527435      	95.077156      	94.88803       	95.4369        	95.06502       	95.79281       	95.49956       	94.8476        	95.92775       	95.16601       	94.760735      	95.28179       	94.99976       	95.480835      	96.105644      	95.72338       	95.652885      	96.03447       	95.79737       	95.40611       	95.59337       	95.243324      	95.30307       	95.43149       	94.92266       	95.3053        	95.51718       	95.21772       	94.99574       	95.68077       	95.59532       	95.2303        	95.20539       	95.17974       	
