# www.neaspec.com
# Scan:	 	AFM
# Project:	 	20251007_PS
# Description:	 	
# Date:	 	10/07/2025 10:43:47
# Scanner Center Position (X, Y):	[µm]	49.99	50.01	 
# Rotation:	[°]	0	 	 
# Scan Area (X, Y, Z):	[µm]	5.000	5.000	0.000
# Pixel Area (X, Y, Z):	[px]	100	50	1
# Averaging:	 	1	 	 
# Integration time:	[ms]	5	 	 
# Laser Source:	 	4.5-15 µm nano-FTIR laser
# Detector:	 	R
# Target Wavelength:	[µm]	7.502	 	 
# Demodulation Mode:	 	Fourier
# Tip Frequency:	[Hz]	241,340.500	 	 
# Tip Amplitude:	[mV]	45.700	 	 
# Tapping Amplitude:	[nm]	79.665	 	 
# Modulation Frequency:	[Hz]	0.000	 	 
# Modulation Amplitude:	[mV]	0.000	 	 
# Modulation Offset:	[mV]	0.000	 	 
# Setpoint:	[%]	79.75	 	 
# Regulator (P, I, D):	 	4.206850	8.625812	1.000000
# Tip Potential:	[mV]	0.000	 	 
# M1A Scaling:	[nm/V]	0.426	 	 
# M1A Cantilever Factor:	 	1,000	 	 
# Q-Factor:	 	487.4	 	 
# Version:	 	2.1.11536.0
84.05708       	105.63951      	93.24425       	86.390625      	103.576385     	94.03779       	85.2143        	100.93295      	98.42957       	85.07106       	100.4548       	101.61559      	86.21932       	97.44652       	102.84809      	88.56996       	95.94496       	103.76946      	91.94675       	93.05994       	99.795525      	93.90605       	92.62227       	98.84755       	92.166336      	91.99824       	100.43566      	96.02865       	89.35249       	98.36661       	101.11885      	89.425735      	94.26551       	103.07127      	94.539154      	89.57148       	102.85133      	101.036285     	86.96749       	100.87777      	104.28174      	89.48165       	100.49022      	105.0215       	88.31259       	96.86283       	106.41511      	86.37123       	94.43758       	112.50138      	86.9596        	87.94836       	113.20244      	93.31105       	87.613174      	113.51153      	100.80051      	84.73608       	109.67554      	102.995674     	85.32012       	108.15093      	105.25739      	83.84483       	103.8476       	107.97633      	86.837524      	102.11492      	112.01757      	89.55342       	100.50204      	114.33404      	93.95326       	98.66195       	113.91181      	98.98256       	96.92871       	114.43614      	104.266975     	95.66511       	114.689316     	109.98551      	98.74342       	118.42257      	122.01081      	86.02679       	101.69795      	111.01553      	87.01987       	97.60674       	115.211655     	91.931755      	90.74177       	109.38924      	78.95902       	57.995728      	76.03321       	87.43745       	84.61589       	75.40721       	
97.83655       	85.41076       	88.775406      	109.23239      	88.294         	86.806725      	107.09007      	90.27642       	86.33654       	106.43309      	91.44478       	85.68697       	104.96362      	95.21309       	85.88557       	102.44007      	96.929825      	87.004875      	101.8579       	98.84972       	88.49923       	99.569405      	100.32288      	88.36312       	97.66869       	104.20201      	89.31989       	91.79143       	105.20435      	95.68941       	89.847466      	105.90613      	99.35529       	88.22229       	101.589516     	101.054085     	88.63482       	100.26734      	103.07309      	90.24402       	100.114365     	106.912704     	87.36926       	93.527084      	110.134125     	92.72037       	89.33371       	110.515274     	97.45277       	85.53531       	111.51436      	103.98958      	80.67111       	112.61377      	113.67005      	80.14163       	103.89226      	118.185684     	84.066444      	97.35953       	120.44263      	91.84839       	95.643105      	120.33455      	95.901276      	98.44798       	119.47197      	100.05347      	98.08719       	124.21349      	101.69876      	94.96569       	128.45303      	104.225555     	93.60896       	132.00394      	111.01507      	98.18124       	132.46245      	118.73984      	101.765976     	132.37442      	124.48837      	110.29516      	131.03403      	103.90608      	79.55509       	108.04735      	90.54463       	62.66258       	91.69203       	89.031334      	57.221992      	83.03353       	90.76737       	66.10744       	66.42056       	81.19472       	89.68726       	90.5924        	
98.33104       	79.837456      	90.08532       	112.16454      	79.44629       	86.94898       	113.89361      	84.33044       	84.2741        	115.6137       	87.46988       	81.997925      	113.32559      	89.09262       	78.21333       	111.92057      	93.04168       	80.07033       	111.41317      	97.435905      	77.20883       	108.159706     	101.79957      	76.42589       	106.63836      	105.18967      	76.506805      	104.23316      	107.232735     	79.83786       	99.01851       	108.57771      	81.6858        	96.61606       	109.907745     	84.58623       	94.63217       	113.07654      	86.39317       	90.91652       	115.60827      	91.08064       	86.659134      	114.111946     	98.57109       	84.159225      	110.16761      	103.34291      	84.51006       	106.64412      	105.708534     	85.386826      	104.09725      	106.24329      	87.82797       	108.924194     	111.86868      	88.258064      	107.44402      	116.26688      	91.74139       	106.66729      	117.00224      	95.98714       	105.89647      	115.56757      	99.222824      	109.21414      	118.91425      	99.195724      	110.13814      	122.59246      	99.93501       	112.78094      	126.43389      	104.17465      	115.69043      	129.17068      	111.68255      	120.29349      	131.72966      	116.81148      	106.83298      	102.56039      	76.76872       	82.39156       	90.4596        	69.71216       	79.31391       	92.19317       	71.740715      	77.589325      	90.667496      	74.880936      	77.470215      	86.941444      	78.77945       	73.717445      	75.228874      	80.61235       	
99.891235      	97.753174      	112.28156      	76.00189       	89.228745      	110.15413      	82.99129       	87.51618       	107.24855      	86.85799       	88.60434       	108.43312      	86.328865      	85.02174       	111.52105      	89.1487        	81.93785       	110.29758      	94.24427       	77.53821       	107.43084      	98.68492       	77.026985      	101.60558      	101.38374      	84.11071       	100.79312      	102.0383       	82.55631       	100.35278      	100.56105      	81.07687       	99.204704      	104.469284     	79.47945       	97.039536      	105.13779      	82.909454      	93.60777       	106.30677      	88.593475      	95.31739       	102.204834     	88.861626      	99.502754      	105.45166      	86.188156      	96.551186      	108.38787      	89.13144       	96.80379       	108.50573      	95.37126       	94.84932       	103.56377      	101.90644      	96.50799       	100.28718      	104.71351      	100.40819      	101.9751       	101.89134      	103.424484     	108.082504     	106.09755      	99.92252       	106.32469      	117.25555      	103.30981      	100.566444     	112.283806     	111.521576     	105.643524     	110.99315      	115.61918      	112.14411      	110.07783      	119.18983      	120.727104     	116.45877      	121.00069      	125.66423      	102.621956     	91.03897       	89.939644      	80.19352       	74.582436      	86.28655       	78.35586       	71.60341       	87.711555      	83.87231       	69.218185      	82.55452       	91.8374        	74.3524        	67.24338       	78.14578       	88.415665      	93.36445       	
112.09765      	78.68992       	108.03496      	95.70398       	77.67343       	106.362114     	102.75841      	77.35344       	101.53683      	107.55151      	76.50265       	97.62303       	110.39005      	78.504524      	94.30489       	112.653404     	82.343636      	89.61634       	113.818245     	85.741905      	86.86732       	113.90515      	87.69718       	83.4858        	112.81482      	94.1733        	84.669075      	113.59668      	97.15892       	82.80786       	112.477165     	101.52239      	79.84785       	104.78034      	103.80827      	79.848946      	104.1034       	104.69046      	80.38562       	105.76618      	110.02152      	80.89495       	102.67894      	111.375244     	83.21168       	101.799576     	114.11511      	84.726616      	103.08171      	117.52218      	90.85235       	104.77145      	116.59037      	92.17665       	92.24217       	114.89535      	95.4528        	94.185074      	115.489334     	100.37161      	92.41247       	115.52514      	105.77367      	93.42916       	112.741615     	111.69768      	92.695915      	109.391365     	114.643265     	97.18954       	111.11588      	117.88647      	101.00542      	111.392975     	123.34781      	104.48259      	110.76488      	128.33365      	111.700874     	112.42683      	136.19296      	113.33752      	95.13937       	104.42756      	97.20157       	77.81741       	83.54728       	87.20329       	74.386955      	80.77299       	88.14664       	75.17227       	81.14522       	91.78262       	75.35603       	71.64318       	88.91005       	95.76572       	92.59635       	82.54334       	
77.99332       	111.22339      	87.13041       	82.05055       	110.45269      	93.43749       	81.024055      	107.92268      	94.285355      	80.479324      	104.988785     	102.036224     	77.2179        	101.9972       	105.22124      	77.969185      	97.92945       	107.080025     	78.00508       	95.97029       	112.24012      	78.60082       	91.95942       	111.95923      	80.81613       	90.290245      	113.062225     	86.66137       	88.07028       	115.52591      	92.385544      	86.60562       	115.14657      	97.538605      	82.655846      	113.78198      	102.30807      	81.70855       	113.28987      	107.73577      	83.74836       	109.58614      	114.141396     	86.97073       	112.42624      	122.21681      	83.5468        	96.90337       	114.32093      	77.08422       	84.65733       	114.39473      	80.496544      	80.95397       	112.73504      	82.38628       	73.21436       	113.322876     	101.648285     	86.343765      	116.68771      	103.74877      	88.213104      	119.25825      	108.31629      	87.92426       	118.38078      	115.45093      	87.14979       	114.45186      	121.11804      	90.81129       	111.419815     	125.80055      	95.962524      	112.34286      	128.39835      	102.68442      	113.61076      	133.4907       	112.25307      	120.9453       	122.95967      	90.39282       	87.93803       	106.42693      	78.11005       	69.85316       	97.095566      	81.88042       	68.75035       	94.64014       	87.14027       	71.56204       	89.76524       	88.92966       	73.82376       	72.74451       	79.9159        	88.082016      	
83.619705      	111.89298      	98.65877       	80.35129       	109.279976     	104.883        	77.80835       	107.607346     	105.86885      	78.792755      	104.38433      	111.13526      	80.145355      	99.60096       	115.33179      	82.27738       	98.04073       	115.80059      	84.15773       	96.237045      	117.32573      	89.92467       	94.771255      	117.198204     	88.936714      	93.643295      	119.40763      	91.36382       	96.15398       	122.433395     	96.89543       	91.3223        	123.20952      	106.8684       	92.846054      	124.1652       	115.13344      	100.19288      	121.150314     	112.417046     	91.62817       	112.447136     	105.12712      	84.47893       	106.00368      	114.32207      	84.73674       	101.49831      	112.844284     	71.65996       	72.864944      	93.18819       	59.305218      	56.44796       	83.97938       	58.070534      	52.32592       	86.49254       	76.34836       	85.20969       	116.69626      	102.94107      	84.045525      	119.21058      	113.493195     	82.27641       	112.13154      	117.07757      	88.43072       	110.77139      	122.18579      	92.81316       	114.18729      	123.44913      	96.30953       	110.82772      	128.50775      	99.19384       	113.8887       	133.6654       	108.6114       	121.676315     	132.60497      	95.35985       	92.44381       	107.33492      	79.74826       	72.19212       	95.96919       	81.64434       	70.504196      	96.772125      	83.096794      	73.7332        	95.4826        	89.57173       	72.28201       	74.933136      	84.34362       	92.15105       	
111.99969      	86.362625      	108.494576     	105.49178      	82.81487       	107.66682      	109.16566      	82.70688       	104.77084      	112.19506      	85.5455        	102.88257      	118.775055     	87.91718       	99.18916       	122.76569      	90.052864      	93.53983       	123.72258      	98.054825      	96.39967       	123.44017      	101.577866     	95.91041       	122.86407      	107.63403      	93.82349       	126.21004      	117.95993      	101.92489      	129.08849      	115.4696       	93.75525       	116.253334     	110.53382      	90.25943       	113.08725      	110.82026      	91.555595      	114.15292      	117.961494     	86.82553       	88.3477        	94.73044       	68.18404       	76.601814      	88.812096      	67.47427       	71.44349       	81.90136       	66.4341        	70.12784       	77.66393       	61.670288      	68.17504       	75.24289       	57.588406      	66.562004      	82.68843       	71.73586       	91.621346      	111.209076     	98.351654      	103.02923      	108.063675     	97.003006      	105.86971      	111.360756     	98.4305        	108.44173      	113.17166      	98.66586       	111.01956      	113.82486      	102.02672      	113.951294     	115.561806     	105.68893      	120.2637       	120.8294       	108.27597      	127.96354      	131.7507       	97.62911       	107.584404     	104.65161      	76.33221       	90.38791       	92.01018       	66.64942       	85.6241        	95.91386       	65.99048       	89.56047       	100.39788      	69.86688       	67.56712       	89.21716       	100.874886     	101.5007       	
92.86373       	109.357574     	102.07171      	86.93782       	109.987335     	109.59042      	84.96781       	107.79719      	120.86783      	88.32785       	97.02101       	123.52697      	94.341805      	92.61913       	121.47743      	104.69373      	97.32907       	121.31369      	106.82136      	100.52049      	128.44919      	114.86777      	98.14934       	136.08514      	128.43217      	88.886604      	115.414566     	118.14104      	85.448364      	113.570015     	125.04408      	93.42884       	113.76509      	125.43543      	85.06325       	89.82832       	96.681366      	69.66748       	83.61706       	94.866455      	65.946526      	77.89361       	97.4383        	64.642715      	73.51877       	97.254         	67.29793       	68.64785       	92.88395       	67.22597       	67.88561       	93.08123       	63.237156      	62.65844       	87.53698       	61.411194      	60.573112      	86.77098       	71.74066       	64.2866        	97.97229       	100.16026      	91.16833       	115.466515     	106.87377      	92.23886       	112.80224      	112.70279      	94.4118        	110.26364      	114.893745     	97.266716      	108.55326      	121.19003      	98.63622       	108.14814      	126.97175      	106.272575     	106.889336     	127.18107      	117.83586      	108.100746     	135.04858      	119.91249      	90.57332       	107.37071      	98.70448       	74.957306      	90.61634       	92.1298        	71.472404      	83.73758       	96.18359       	75.69268       	78.93614       	94.32042       	90.19633       	78.40219       	74.86943       	75.11969       	
93.06108       	108.36018      	95.94931       	101.98914      	110.93012      	100.322334     	100.032845     	111.14977      	104.016716     	102.579346     	108.932526     	108.60851      	105.98767      	108.57858      	112.06172      	109.40686      	108.57011      	117.104324     	115.55473      	110.84326      	118.58724      	121.61778      	114.98141      	124.96658      	133.97086      	104.84603      	101.71447      	106.934814     	81.22311       	84.15793       	101.66464      	71.50633       	74.52933       	103.5651       	67.93427       	74.39802       	102.668785     	69.07376       	72.85726       	99.94255       	70.88703       	69.084625      	101.25009      	69.138405      	66.37356       	100.82061      	73.778244      	61.699196      	96.137535      	78.666176      	57.09163       	88.813446      	82.20717       	57.459538      	80.11064       	76.37685       	54.133713      	79.06909       	83.643906      	58.06349       	83.99686       	104.375626     	84.39286       	109.65362      	117.05108      	84.11018       	102.54375      	120.40173      	90.54505       	102.55782      	118.77706      	95.7203        	104.735794     	119.984985     	96.688614      	107.94373      	127.18947      	98.55802       	105.36142      	130.98657      	108.70836      	107.13009      	134.03717      	121.660904     	98.49063       	113.5403       	91.23487       	79.112274      	94.439156      	79.792885      	73.27153       	91.851         	83.56893       	71.43969       	89.31001       	93.28331       	78.88559       	71.929245      	74.99385       	81.867065      	
121.48322      	92.72578       	123.475716     	101.38036      	94.62654       	123.62222      	111.5596       	92.158775      	120.644        	117.73694      	95.97574       	121.18396      	124.091194     	96.66226       	121.08064      	129.60822      	99.08044       	121.51431      	141.38544      	105.83558      	118.86252      	150.76498      	105.81372      	91.82144       	107.98251      	79.05061       	70.78004       	99.0022        	79.09886       	70.93584       	103.42603      	80.10582       	65.53022       	102.62765      	88.307076      	58.994675      	100.364395     	99.18472       	58.516495      	83.86921       	95.72995       	64.64864       	86.90073       	91.94193       	64.76878       	92.73889       	92.62484       	57.750175      	85.38041       	98.66635       	59.02424       	74.51882       	97.81121       	60.939453      	60.506695      	93.58595       	62.195625      	55.92551       	87.95452       	68.96776       	64.81194       	99.559845      	95.830765      	91.69777       	121.00973      	100.04859      	86.619644      	124.617805     	110.13384      	86.10699       	118.70422      	112.814285     	88.30543       	120.52698      	118.84759      	91.898186      	121.121216     	121.08472      	95.54271       	121.51189      	125.20088      	100.929985     	125.43161      	137.03128      	102.86315      	108.0971       	114.341545     	78.132484      	90.31147       	98.5776        	67.35812       	82.95683       	99.06261       	70.11009       	79.634         	101.72768      	84.90892       	68.255424      	66.7643        	75.7189        	
94.99727       	106.60296      	93.18717       	115.4769       	109.51505      	93.94667       	118.26824      	110.787094     	96.3826        	118.44935      	114.07601      	98.844         	120.600494     	114.40507      	100.05122      	121.88211      	120.971634     	104.51932      	127.31764      	127.31849      	113.35608      	133.53629      	114.829704     	87.27653       	99.219315      	91.957085      	74.34771       	88.528694      	88.656006      	76.19622       	90.89631       	88.474236      	75.08287       	93.11152       	91.0503        	78.74856       	95.3923        	93.67408       	80.85545       	85.2376        	86.426834      	78.30016       	86.737236      	83.94899       	79.69402       	82.8227        	80.7019        	82.294685      	79.29335       	80.87098       	79.86449       	74.82768       	79.11911       	80.02125       	67.58718       	74.68235       	78.694954      	62.200863      	70.574234      	81.55983       	64.38026       	75.3086        	100.15058      	87.70979       	103.39774      	116.532074     	90.037766      	105.693634     	113.86347      	92.18114       	105.21785      	115.84022      	95.62769       	105.89757      	118.094376     	96.30617       	109.88679      	120.80474      	101.77441      	113.41337      	123.43134      	105.25379      	115.744545     	130.67122      	112.90595      	106.1477       	113.20584      	90.97042       	89.9362        	96.48082       	76.794525      	80.63274       	90.59897       	77.50976       	79.389206      	91.84129       	86.75215       	76.98422       	75.583115      	79.578415      	
100.70509      	113.42226      	110.83233      	94.10412       	116.7555       	115.10145      	90.03356       	116.5855       	120.02867      	93.53609       	109.272        	119.65638      	94.457596      	117.632675     	125.25166      	99.298706      	120.558426     	126.38775      	107.46378      	126.212036     	132.19125      	114.933685     	115.32114      	107.04326      	80.082         	97.95433       	94.294075      	66.99048       	87.52528       	96.72974       	74.12742       	87.121735      	95.343216      	75.5794        	90.26862       	93.76904       	74.028114      	90.53068       	95.212105      	75.09708       	84.732956      	92.50141       	75.1005        	84.64953       	92.039444      	74.696724      	82.824554      	87.642715      	74.914856      	86.28947       	82.679756      	69.98463       	86.74139       	82.95696       	64.44245       	80.76215       	80.69995       	63.27683       	73.203865      	72.3327        	68.83894       	82.62296       	78.71781       	87.94196       	110.86649      	103.74627      	96.137924      	112.312        	105.19443      	97.50619       	109.89149      	106.70623      	98.38587       	112.69576      	107.325264     	100.34042      	115.07929      	106.45796      	105.92768      	122.42992      	106.44998      	107.01401      	125.587326     	116.54697      	114.47568      	128.73991      	105.84718      	97.006386      	99.95201       	86.72476       	83.35167       	88.32332       	77.6468        	79.256645      	90.079346      	82.10113       	78.79735       	81.932304      	87.081635      	87.64359       	
89.52869       	110.36454      	92.39563       	108.540474     	109.215385     	93.218216      	110.13703      	114.23823      	92.62195       	117.1737       	120.15937      	95.56105       	114.408516     	115.64233      	101.05037      	116.34736      	124.27232      	102.948105     	120.7164       	130.62779      	110.60147      	128.79344      	125.46789      	91.19967       	99.56274       	103.3356       	75.565445      	85.40182       	92.39562       	75.12957       	87.58852       	93.98979       	77.05114       	87.26229       	97.22278       	79.012726      	86.20272       	94.18103       	77.8509        	83.62729       	93.416824      	79.90508       	83.69519       	90.844604      	79.02634       	85.558945      	88.5983        	78.74821       	83.13159       	85.64877       	76.70879       	82.63326       	81.13327       	75.25313       	78.05387       	76.735664      	74.98298       	75.269325      	67.70404       	73.306915      	76.69479       	68.65832       	81.565186      	89.17785       	95.99989       	109.947624     	106.17547      	94.37631       	112.85302      	106.82582      	90.587326      	116.548225     	112.14948      	91.71888       	115.91438      	110.8947       	95.89819       	119.0691       	110.45382      	98.01246       	121.949715     	114.15331      	98.79411       	127.40196      	122.50256      	104.460335     	131.39528      	113.29426      	81.25041       	101.970406     	100.13415      	70.25751       	87.540855      	89.86092       	72.65207       	82.74183       	94.89856       	89.04096       	78.85501       	72.38974       	
107.617805     	100.68779      	107.57978      	95.4099        	104.32259      	109.994644     	97.19779       	105.217255     	110.89137      	99.90931       	110.363045     	109.205765     	101.9586       	112.50941      	113.878006     	104.25569      	116.253136     	115.19412      	113.36076      	120.76017      	120.37867      	120.7934       	123.57755      	104.437256     	95.949394      	100.62831      	89.11154       	80.54359       	88.09591       	80.571785      	82.25752       	89.98591       	78.18756       	89.22343       	88.91732       	78.05223       	88.63494       	88.15355       	78.784386      	88.332565      	85.50837       	78.51909       	90.397095      	81.683174      	75.717964      	91.0642        	78.61321       	74.27204       	91.80305       	75.68438       	72.415276      	90.82883       	73.31052       	69.962845      	87.1361        	69.61164       	68.03262       	82.937584      	65.08657       	63.134         	79.10129       	66.864334      	66.50587       	89.40115       	89.902374      	96.10359       	112.717415     	96.002686      	98.23017       	110.32194      	95.25855       	100.65857      	110.27772      	97.673904      	104.10933      	112.2285       	100.35451      	108.5408       	112.41352      	101.50506      	111.32775      	114.83804      	104.94934      	117.08383      	119.26213      	110.91768      	124.738106     	112.53608      	95.36368       	98.78267       	87.986725      	76.67913       	85.58857       	78.45792       	71.603386      	83.96236       	89.67433       	80.832886      	72.449524      	70.79362       	
64.33984       	118.76458      	104.556145     	92.29879       	113.69734      	104.0297       	95.99779       	116.32695      	100.768585     	102.04042      	117.2996       	102.14611      	105.34164      	120.97322      	106.98222      	103.272026     	125.50281      	111.05781      	110.765755     	126.9872       	117.38592      	119.20971      	132.41861      	113.92297      	103.53226      	102.465614     	87.445694      	87.31776       	89.37292       	79.243004      	84.92088       	90.13683       	83.51319       	85.92764       	87.75031       	85.08564       	89.310356      	83.138725      	82.7693        	94.10806       	80.44068       	78.646774      	94.48873       	76.772736      	78.59912       	96.97802       	75.229095      	78.14777       	92.43151       	76.5934        	78.19841       	88.08835       	71.69617       	76.57755       	87.432465      	67.40176       	73.46033       	81.24125       	62.063065      	68.73826       	79.757065      	62.37075       	66.72724       	84.262314      	77.505844      	95.75713       	108.99071      	97.58875       	101.41139      	110.44231      	91.719475      	104.61598      	114.25512      	90.787636      	106.233345     	116.32736      	91.95647       	107.61329      	118.71254      	94.514404      	106.99974      	121.04412      	97.6872        	113.36415      	127.4797       	98.49423       	120.4646       	138.31631      	89.84298       	91.86617       	108.21054      	76.90807       	73.04606       	92.16698       	72.90455       	68.70281       	86.183685      	91.59456       	83.481804      	74.802345      	
75.84098       	94.748886      	96.02684       	115.07152      	98.22553       	98.58587       	115.06932      	100.82696      	100.96158      	119.450005     	99.811844      	104.8062       	121.34818      	102.07048      	107.561386     	123.748405     	103.40077      	110.97615      	127.02666      	107.90556      	117.684074     	134.59291      	114.92985      	119.19449      	122.664154     	88.28559       	93.52621       	106.218056     	74.83282       	82.14302       	99.76006       	76.634796      	81.01065       	101.11185      	78.605354      	79.394485      	103.50861      	77.81592       	79.55208       	103.00761      	76.65069       	78.583244      	103.61787      	75.14824       	78.045555      	102.29         	74.767654      	78.48298       	100.17904      	72.94522       	75.37872       	100.10161      	71.25131       	71.95031       	93.52063       	71.85893       	70.27684       	89.02251       	71.44599       	67.75316       	80.48243       	66.38732       	70.189766      	84.919426      	75.80153       	83.984375      	113.24686      	101.306        	99.70613       	109.97835      	104.34997      	101.54837      	110.28711      	104.81002      	106.398384     	107.74923      	107.899216     	111.24914      	106.47153      	107.67167      	116.55826      	111.09101      	107.97425      	120.47847      	113.39603      	113.53234      	128.08563      	118.824135     	112.79379      	111.433716     	88.137825      	90.17426       	96.28024       	69.580826      	74.5825        	95.114174      	85.02502       	69.46444       	67.75725       	75.829765      	
61.41227       	101.41609      	99.38609       	92.64762       	114.828705     	100.25119      	95.51469       	113.0466       	100.93566      	100.43013      	115.13902      	99.454704      	102.27209      	118.929825     	104.03739      	103.76099      	123.39114      	107.674164     	107.800285     	128.45688      	110.127144     	113.87435      	135.62581      	117.62749      	111.56989      	114.79463      	89.879265      	92.6031        	98.17944       	73.93706       	81.0918        	97.31159       	74.78037       	82.45764       	101.439415     	72.14099       	79.69066       	97.922646      	74.78049       	82.69771       	92.80158       	76.78026       	85.64844       	90.41134       	73.95391       	85.342094      	90.14555       	73.93923       	82.45394       	85.8311        	77.67657       	82.76498       	76.46572       	77.994675      	83.027214      	73.96492       	71.121475      	79.838936      	70.417595      	67.67466       	69.668564      	68.00613       	67.48352       	65.779366      	73.89114       	85.140396      	91.26201       	100.652214     	107.36319      	92.97594       	105.40046      	108.562904     	90.19276       	109.44173      	107.80589      	88.69296       	110.78528      	109.97         	93.11382       	110.28509      	111.09337      	98.12492       	111.74288      	112.90685      	102.8694       	116.48481      	116.0376       	111.67178      	120.71098      	103.197174     	90.13078       	88.48935       	83.54227       	78.829094      	76.11561       	74.944984      	77.49379       	83.334724      	87.06352       	88.04147       	
74.884735      	84.00638       	91.71695       	94.59196       	109.46446      	105.326836     	98.60975       	109.49077      	104.22389      	103.545654     	110.91756      	104.81999      	103.9305       	116.91427      	104.273895     	104.6903       	118.92707      	109.08582      	107.63193      	119.97266      	110.468155     	119.72517      	123.1055       	114.2301       	129.83424      	116.97335      	92.16814       	100.302505     	101.903564     	72.28824       	88.64986       	93.37238       	71.1253        	89.32431       	90.029305      	74.523636      	94.86059       	89.939545      	70.35868       	97.67452       	89.1626        	70.16071       	95.176094      	88.65202       	69.69444       	95.20352       	86.10794       	70.19624       	94.16454       	80.13764       	69.10991       	93.722916      	79.57495       	65.52801       	89.69606       	77.98732       	60.319443      	85.08322       	73.42845       	58.700638      	78.63088       	68.4964        	57.496567      	78.720795      	72.42517       	64.991135      	91.59509       	97.50896       	85.97482       	109.62134      	106.06941      	87.56206       	106.38562      	104.134224     	93.1401        	102.40315      	101.50335      	96.463264      	108.913345     	98.964836      	97.48372       	111.66443      	102.03665      	97.81905       	111.67037      	105.81294      	104.73947      	111.08         	112.48668      	104.41044      	91.38273       	83.96362       	95.19493       	84.90706       	71.007         	86.5972        	93.931404      	92.68426       	88.26563       	88.40368       	
61.6094        	90.93999       	81.647934      	89.756195      	116.19459      	105.17795      	91.6908        	112.31017      	108.547485     	96.49903       	109.31201      	109.88518      	102.87993      	107.29088      	113.148476     	106.44229      	106.632355     	118.63447      	107.86732      	105.43501      	126.87774      	109.87455      	109.273605     	134.43445      	116.41684      	112.359406     	121.958046     	95.475716      	87.79253       	104.07734      	76.00302       	78.38813       	97.981674      	76.211075      	78.842636      	99.272354      	78.60623       	79.27412       	99.69817       	80.139175      	74.81265       	98.27886       	80.012085      	74.668564      	96.53449       	77.08012       	76.262726      	94.28886       	77.14399       	73.06994       	93.17472       	76.62736       	72.307335      	89.68839       	69.67937       	72.13878       	86.57917       	64.59231       	65.592155      	83.063644      	59.526833      	62.332134      	71.58216       	55.516743      	65.83476       	74.22505       	62.11171       	91.19231       	106.009796     	80.77405       	96.639145      	107.013054     	82.059204      	93.81406       	103.87006      	84.79952       	96.6158        	99.853485      	82.881805      	100.99913      	100.75319      	81.31758       	98.887436      	102.66554      	85.31033       	96.84148       	101.04672      	93.71541       	98.48661       	101.33812      	97.75667       	103.79813      	96.406494      	86.52072       	97.64488       	104.77912      	96.58508       	95.87712       	100.518036     	105.1879       	
88.042366      	60.356724      	92.34897       	85.52307       	91.54249       	118.1483       	101.32848      	90.64066       	117.4917       	101.086685     	91.85605       	113.7862       	107.89852      	95.20857       	114.273994     	107.3981       	102.54888      	113.38199      	109.54204      	110.41089      	114.544716     	113.95158      	114.586624     	116.38046      	123.80665      	122.16305      	110.478386     	112.069176     	94.30291       	80.30059       	97.359245      	81.270226      	74.03419       	91.22579       	83.038826      	80.50805       	91.125694      	78.77277       	81.867256      	95.017296      	76.85256       	79.96956       	95.42427       	76.66609       	79.75094       	89.6387        	73.489334      	86.53488       	87.24236       	67.84147       	87.95048       	84.18926       	63.58179       	85.22297       	82.43908       	63.728203      	79.142365      	77.07417       	63.7586        	78.33086       	67.25758       	58.95305       	75.764984      	63.04705       	54.747437      	78.89058       	70.264175      	66.80723       	102.46886      	92.53966       	88.01391       	103.90108      	89.09974       	90.815956      	105.09119      	89.208115      	90.34097       	106.15319      	85.099976      	90.666756      	106.93599      	88.44302       	92.69401       	103.25301      	89.4416        	98.02237       	102.56384      	84.11386       	99.485565      	107.889725     	83.22847       	99.07138       	110.002075     	90.16027       	96.44808       	109.20726      	101.96428      	93.056915      	91.31613       	97.660034      	
58.041965      	79.633125      	59.61526       	96.215935      	106.85979      	86.58427       	111.9563       	114.87519      	91.833664      	109.31538      	114.27335      	95.86089       	113.21049      	112.73394      	96.59128       	116.674065     	115.676254     	99.21965       	116.05407      	119.4605       	105.14403      	116.835686     	121.70368      	112.41832      	123.49024      	128.56435      	118.78875      	115.86471      	98.08754       	93.40367       	96.82779       	80.54549       	82.372345      	90.52658       	80.45866       	86.42845       	88.66712       	81.815765      	86.13034       	91.3543        	78.61783       	86.958115      	88.97275       	76.72692       	90.37619       	87.43978       	70.7811        	90.80885       	86.11478       	65.342865      	92.77525       	85.09956       	59.587994      	88.417755      	82.63429       	53.911247      	88.16517       	80.24749       	52.358868      	81.365974      	79.9006        	48.335167      	71.99588       	75.53515       	47.951313      	73.34575       	82.24561       	56.26209       	88.939415      	108.722885     	81.06822       	97.51664       	108.797104     	80.427414      	97.86469       	109.747406     	78.26659       	98.523926      	111.67502      	78.859375      	94.00998       	112.35209      	84.83892       	92.05492       	109.65137      	92.10559       	89.54732       	108.67924      	89.41101       	91.3839        	112.555145     	90.64415       	88.51568       	114.08057      	99.671844      	86.104454      	95.07642       	105.829216     	108.6628       	101.52318      	
74.01408       	69.39287       	84.498825      	70.34319       	81.91134       	110.877716     	96.43363       	98.74704       	111.564705     	96.78768       	102.94018      	111.8942       	97.426704      	107.77588      	111.40418      	99.40813       	109.27393      	112.27132      	100.757866     	113.48793      	112.30164      	105.96941      	119.52325      	114.201904     	111.30024      	128.41469      	120.16793      	105.37861      	112.20964      	92.77858       	84.10279       	97.59667       	77.71033       	77.306595      	91.037766      	74.45397       	81.786026      	92.115         	74.08645       	79.06524       	94.64356       	74.19516       	80.08823       	88.54997       	73.04193       	82.4729        	85.5846        	68.635765      	82.31599       	83.483315      	67.674675      	79.45224       	75.87227       	67.2946        	78.65503       	67.18495       	66.36047       	78.1295        	71.49477       	68.28903       	83.867134      	71.08329       	70.30507       	80.916756      	68.43833       	70.72336       	83.5263        	70.567505      	88.20715       	102.89429      	86.96042       	100.20215      	98.70256       	84.99134       	99.05066       	102.57453      	83.40739       	93.81157       	104.88835      	86.84134       	96.491264      	99.32319       	86.31901       	100.48139      	97.68155       	85.63265       	103.690605     	101.150345     	82.747894      	102.57325      	102.20491      	86.27879       	102.80323      	102.38529      	87.65363       	101.41769      	108.889145     	97.77998       	87.70244       	84.1555        	
78.274445      	53.60858       	75.658745      	89.55416       	65.78081       	96.129875      	118.38545      	92.9514        	96.53088       	114.78038      	95.164925      	100.185585     	111.01433      	95.17916       	107.98355      	113.02614      	93.11028       	108.51208      	119.50264      	96.67897       	106.06822      	121.57066      	104.13807      	110.552704     	122.21208      	109.41405      	121.884995     	126.858635     	98.9954        	101.62453      	96.68887       	75.2458        	84.65826       	85.519684      	67.6895        	80.47949       	85.434         	67.86909       	86.15646       	84.04681       	65.73096       	83.30932       	84.23824       	61.546227      	82.662346      	81.31047       	59.50909       	80.052284      	81.83571       	61.651714      	81.838745      	78.9981        	65.49581       	84.08625       	76.221634      	60.911785      	86.759026      	82.17989       	60.642326      	86.74264       	88.82372       	71.31713       	87.64932       	89.965576      	81.82978       	104.66997      	97.30094       	84.09559       	105.8162       	96.01759       	86.84054       	102.36319      	96.8835        	87.91426       	98.67871       	99.62873       	87.9843        	93.604454      	102.04255      	91.40162       	89.26644       	102.19134      	94.54454       	85.4018        	103.92907      	99.05307       	80.71887       	106.94296      	101.50127      	77.11005       	105.59557      	104.55799      	76.64699       	108.46614      	108.66096      	80.72412       	85.78763       	107.568405     	114.876755     	113.24447      	
82.447685      	54.769924      	76.50805       	76.75848       	60.63544       	96.75844       	107.91933      	81.05          	116.347496     	112.56494      	82.97393       	110.44137      	112.46723      	87.95757       	113.00319      	113.23719      	93.87862       	117.34941      	109.159164     	89.44799       	115.41764      	112.02787      	92.60522       	116.2685       	117.01432      	99.0236        	119.695816     	126.82801      	106.64355      	103.293        	97.9858        	75.49939       	86.20463       	77.757095      	64.24755       	80.13892       	79.5588        	64.358185      	76.26701       	80.07886       	64.06897       	71.62706       	78.41524       	66.70668       	73.91621       	74.50013       	69.2169        	77.44024       	75.96333       	72.11069       	81.724945      	77.25147       	80.28288       	85.813354      	78.28665       	86.36596       	94.74793       	84.332         	100.85252      	98.0096        	86.28875       	101.68869      	97.55711       	87.73454       	99.12926       	95.113235      	89.69057       	103.57262      	94.116615      	89.14425       	103.779        	93.83109       	88.47521       	99.60388       	95.79676       	93.446785      	93.3023        	92.2847        	102.83023      	94.66054       	85.249176      	104.43643      	97.38152       	83.50496       	101.92107      	98.96684       	84.05436       	106.457        	95.47215       	81.60878       	110.163765     	97.46782       	77.70208       	110.429146     	100.49832      	78.32023       	88.508         	105.4456       	108.817345     	100.823044     	
69.06462       	71.95205       	73.62277       	64.46451       	70.10016       	81.44146       	91.571365      	96.003         	96.33444       	102.352066     	99.24027       	95.463264      	98.12596       	101.58112      	97.83263       	98.560875      	95.45011       	104.94162      	101.20368      	93.44246       	107.1388       	103.71178      	97.949455      	106.409096     	102.65986      	105.184044     	110.75261      	103.369156     	115.62041      	102.85234      	78.86808       	83.069984      	81.41429       	66.88475       	66.64726       	67.86999       	70.71652       	72.93948       	70.69626       	78.85486       	77.51216       	63.88098       	80.3671        	80.73621       	65.42598       	85.63377       	91.29064       	72.15209       	94.50614       	96.660614      	85.46061       	104.88107      	96.74208       	82.06453       	107.57568      	98.427826      	80.36508       	105.77938      	100.06758      	82.4981        	99.68282       	101.69078      	88.06859       	95.99324       	97.31767       	91.77654       	98.01189       	90.523605      	93.21204       	101.898384     	88.78128       	87.66598       	103.49622      	92.79969       	89.6007        	100.13521      	92.9657        	92.55875       	97.27943       	88.642876      	98.428825      	98.82746       	83.647835      	97.13541       	100.693245     	84.49279       	96.63787       	97.38044       	88.31163       	98.19632       	93.353775      	87.126144      	102.1831       	92.7613        	83.02989       	101.04156      	107.26429      	93.17343       	81.88233       	76.74953       	
69.54971       	69.348755      	65.36854       	65.07385       	72.63805       	65.35263       	82.71053       	102.34032      	87.027664      	97.47212       	104.49403      	84.624664      	99.21364       	102.15893      	83.43067       	101.71677      	101.57862      	80.85021       	101.73398      	105.12594      	82.143745      	101.892624     	105.2132       	84.43251       	102.641235     	106.55858      	90.60267       	106.897026     	112.97688      	90.137764      	90.87012       	86.86939       	68.36669       	79.32879       	77.998665      	59.187363      	76.760765      	87.73559       	74.54499       	83.552414      	90.28989       	82.89426       	94.68307       	98.40368       	90.1217        	99.9716        	97.52771       	90.632324      	99.11961       	99.10548       	94.509964      	94.01498       	99.33703       	98.208145      	91.643715      	98.59392       	101.60198      	87.80695       	97.87951       	103.4076       	84.76547       	99.50263       	101.504684     	86.36642       	100.47326      	97.69626       	86.07138       	97.20661       	100.949875     	85.4211        	95.146904      	98.974815      	91.42719       	93.9285        	92.7105        	96.66674       	95.28271       	88.25463       	95.806114      	96.94898       	90.20855       	97.45692       	95.72851       	87.62322       	99.107056      	96.76184       	86.37733       	99.258545      	99.24633       	81.30741       	102.668144     	103.90793      	80.870125      	98.04982       	103.9471       	88.5747        	89.05142       	98.51196       	100.6127       	98.37296       	
70.94674       	54.996048      	65.160805      	74.13753       	50.42672       	64.50106       	81.62272       	74.35868       	92.47499       	102.76925      	85.50712       	93.11308       	100.114876     	84.69833       	92.57357       	98.502846      	86.959366      	92.967026      	93.600006      	87.99288       	93.80022       	91.80633       	89.85332       	97.05762       	90.216675      	93.58341       	98.175545      	87.46463       	99.87418       	103.66334      	90.8935        	103.19371      	98.48802       	81.05651       	95.02975       	98.59863       	86.56676       	97.181526      	95.552734      	92.96374       	97.98976       	94.08196       	92.73907       	95.296646      	93.840416      	94.11421       	96.15555       	95.80274       	94.20655       	91.184135      	100.46432      	93.12231       	88.344         	104.57563      	95.65673       	87.28503       	105.239174     	91.37778       	92.9228        	103.53263      	90.22372       	94.09171       	102.00827      	90.54567       	91.41132       	100.87033      	89.84033       	93.692474      	95.246284      	94.00806       	95.01856       	94.076294      	97.30589       	90.22389       	95.0572        	99.11085       	83.38876       	99.90559       	101.919815     	80.31806       	98.74506       	99.38643       	79.77209       	99.74321       	101.05907      	79.653496      	100.40634      	103.07619      	78.47971       	100.15788      	102.330376     	81.88396       	98.07381       	98.18549       	86.12105       	95.75933       	102.25249      	93.04005       	83.63093       	82.178055      	
78.9037        	56.86289       	71.86355       	67.467995      	52.43807       	76.20124       	71.392685      	58.573544      	99.651886      	94.70274       	78.85857       	106.20367      	95.27404       	79.56278       	104.93204      	92.49829       	81.11677       	107.64242      	90.507286      	81.10522       	109.63216      	89.58531       	78.5101        	107.943146     	94.29554       	79.184395      	104.331        	93.9096        	83.38057       	102.16987      	92.92131       	84.68535       	100.20938      	92.69538       	87.1685        	99.79826       	93.20293       	88.409355      	99.665695      	93.57401       	88.43212       	99.929245      	92.33467       	89.86755       	99.36966       	88.467285      	92.76107       	102.33301      	89.307915      	90.95363       	105.56512      	86.71871       	89.67005       	106.343056     	84.11093       	92.145256      	106.214005     	83.39396       	92.73029       	105.80498      	82.58037       	90.44133       	107.813        	80.62602       	93.86799       	109.67741      	78.33499       	90.57885       	109.899055     	78.28327       	89.34478       	111.51013      	82.135864      	88.294464      	111.109505     	83.81103       	87.347206      	110.64279      	86.03724       	87.47119       	109.79631      	86.954796      	84.14709       	110.48694      	91.68997       	79.286095      	107.50468      	91.800285      	78.69835       	103.81651      	96.87163       	80.95643       	99.86563       	100.48115      	83.6584        	93.57359       	107.2417       	102.0901       	89.82368       	82.333405      	
78.70711       	55.210117      	72.484146      	64.8215        	56.533184      	74.55313       	71.5261        	62.93954       	89.34517       	95.724525      	88.74975       	101.478355     	94.45617       	89.20677       	97.60053       	94.34709       	91.27767       	95.98321       	91.70696       	95.538155      	96.57064       	88.53507       	98.06715       	95.09167       	86.34484       	100.5907       	93.63597       	87.40946       	104.61373      	89.59095       	86.81403       	108.357254     	89.05919       	85.03317       	110.12664      	89.51781       	82.34328       	107.55589      	89.51891       	85.05279       	108.76384      	91.44743       	85.68823       	108.51999      	88.480865      	84.24737       	111.59917      	88.7258        	84.183014      	109.50987      	90.57323       	86.05359       	106.073296     	90.856514      	89.07635       	104.02457      	91.16389       	89.36244       	106.91108      	91.148155      	87.555374      	105.44225      	89.99052       	88.03987       	104.58154      	89.38063       	88.25293       	101.820694     	89.880936      	89.65556       	101.85481      	88.906296      	93.8374        	98.53008       	89.16673       	94.714516      	95.0948        	90.32549       	95.61742       	91.41859       	91.49234       	96.894905      	91.225784      	94.95954       	94.698685      	92.728516      	96.434975      	93.5693        	90.00894       	98.20175       	93.18917       	90.85119       	99.28527       	92.68385       	92.608086      	101.55264      	99.45568       	92.51789       	85.76168       	84.63232       	
74.978386      	82.51549       	76.495865      	62.670734      	77.57661       	76.39223       	67.69241       	81.974785      	82.82558       	90.12471       	98.27548       	89.38736       	94.252884      	100.98082      	87.04346       	90.64811       	102.27405      	88.00947       	91.91373       	98.411095      	87.31063       	96.80181       	96.618034      	83.410774      	101.14082      	96.00774       	80.01322       	99.03805       	96.98797       	79.28475       	100.788605     	96.78653       	79.18461       	103.80073      	95.313545      	78.71231       	104.24989      	93.8239        	83.05014       	101.818275     	93.21359       	84.173454      	101.39279      	93.332886      	84.98648       	102.70846      	96.016266      	83.257904      	102.4264       	98.830246      	79.25253       	102.28325      	97.29684       	80.25619       	98.96005       	96.622795      	86.33541       	98.604324      	95.64427       	89.99098       	97.85585       	94.3407        	91.42569       	97.28592       	93.84163       	90.23082       	97.411606      	93.10029       	92.108185      	94.76614       	92.088715      	98.208176      	89.52169       	93.22172       	102.20444      	86.52741       	92.71962       	104.048355     	85.621735      	91.442696      	103.75154      	86.694374      	95.50517       	101.33106      	86.04265       	98.702286      	101.29501      	83.1654        	100.16987      	103.34635      	85.67948       	95.52086       	101.79803      	89.530106      	97.53458       	102.72583      	92.18719       	89.27441       	84.903564      	80.966606      	
70.33868       	93.98101       	97.18842       	69.89364       	97.02503       	108.36504      	75.590485      	95.7725        	111.6405       	81.297966      	91.4069        	106.184944     	85.389946      	92.16545       	104.80135      	82.87984       	91.75597       	109.36575      	83.310684      	89.4427        	109.81718      	86.55324       	85.05313       	109.545685     	90.68818       	82.28411       	108.43006      	90.38494       	85.34745       	107.98593      	90.547226      	85.94763       	107.574844     	87.77897       	84.68949       	108.58446      	92.44813       	82.559         	106.44223      	91.19273       	83.18327       	105.618614     	92.046646      	83.21937       	104.47271      	90.8402        	85.58216       	105.69184      	90.504814      	85.38547       	106.5034       	91.20329       	82.55706       	104.83031      	91.55394       	81.44382       	104.85491      	94.27481       	84.89742       	103.25476      	92.40266       	90.5628        	106.17133      	89.16752       	85.3868        	108.13891      	88.18856       	80.505486      	108.74647      	89.13082       	83.30767       	111.079575     	93.83858       	85.31031       	111.99861      	90.50581       	84.594536      	113.31592      	90.545044      	84.41779       	115.454155     	96.8446        	81.205536      	110.521255     	96.19356       	84.321526      	109.748184     	99.22077       	86.63897       	106.51254      	101.7154       	87.06286       	107.1777       	104.62988      	89.59047       	102.492065     	109.89372      	87.150185      	63.87103       	54.381874      	
98.98598       	101.19694      	103.52897      	81.861855      	101.09177      	101.47486      	79.58412       	101.96712      	105.1792       	82.19743       	97.94475       	103.58402      	80.92846       	101.336876     	102.783775     	78.73138       	104.51408      	104.27918      	74.91975       	102.70288      	107.09095      	75.00848       	97.821236      	106.05645      	75.94513       	95.92314       	108.15762      	78.91104       	95.62161       	108.27303      	78.726746      	94.52552       	109.17122      	79.916046      	88.971115      	112.97741      	82.244385      	86.010056      	110.31755      	85.47749       	84.8316        	108.92611      	87.53619       	83.51191       	107.95378      	89.47283       	84.691         	107.487305     	91.38515       	81.78329       	109.7068       	93.843025      	80.00169       	105.99074      	98.737015      	83.75513       	100.877        	101.41617      	87.40222       	100.97058      	96.91621       	89.0574        	104.439224     	95.878654      	88.3343        	106.097496     	94.37375       	84.9309        	104.10384      	97.2964        	87.417076      	99.79986       	100.41621      	90.487595      	100.47879      	97.524216      	91.97465       	102.56569      	94.24458       	91.36491       	105.94441      	93.88345       	89.22086       	108.26385      	94.49519       	90.683975      	107.30122      	92.64183       	89.73005       	107.565956     	92.356636      	92.43486       	108.69359      	94.847786      	95.692         	110.85607      	104.49693      	82.58153       	64.23433       	61.4124        	
92.94821       	97.598915      	88.47673       	99.50047       	95.53197       	84.52526       	101.84987      	94.68937       	83.46081       	104.55048      	95.39055       	79.72209       	107.16459      	95.32486       	81.190025      	104.81776      	96.47319       	83.463585      	103.89383      	94.54385       	85.56137       	103.020454     	92.39479       	86.147         	102.44284      	92.95825       	85.66178       	103.689926     	93.93827       	86.97612       	103.04269      	92.12239       	88.2402        	101.00848      	91.65587       	88.88093       	100.87889      	90.61232       	91.52128       	103.08121      	88.08625       	90.37199       	100.68824      	89.64889       	94.478424      	100.92976      	89.5078        	98.52556       	101.219154     	88.422035      	100.4976       	103.58573      	87.18066       	103.35961      	104.01976      	88.12685       	105.99845      	103.996895     	74.61498       	92.95445       	90.045975      	77.14934       	105.469475     	99.3264        	84.63876       	107.85339      	103.082954     	86.453445      	106.963264     	93.83656       	73.05077       	93.75696       	99.37959       	84.350494      	108.25252      	98.43604       	84.433105      	109.15838      	97.63516       	83.70183       	107.853355     	99.345406      	82.788826      	109.460655     	98.6328        	82.67851       	110.98216      	97.61807       	82.84091       	112.27794      	97.91478       	84.956894      	110.32626      	102.420044     	84.919395      	108.35429      	115.76126      	86.19549       	62.489887      	55.40682       	
99.29745       	88.493195      	89.496284      	106.380005     	90.763535      	89.50126       	104.31265      	88.08203       	92.49318       	103.97511      	86.574814      	90.97783       	105.787315     	89.45739       	91.42667       	100.97167      	89.479706      	94.31337       	98.91065       	89.51197       	96.75538       	96.46214       	88.64461       	98.29891       	96.3241        	88.46026       	100.56802      	94.5105        	88.86639       	100.81546      	93.010704      	89.798256      	104.76415      	91.63871       	90.81059       	110.074425     	89.4357        	89.63288       	114.06051      	90.46915       	86.89877       	114.538895     	90.28337       	87.14038       	116.15207      	92.50447       	90.16211       	118.73226      	96.95866       	89.460815      	120.050095     	100.07479      	90.9672        	124.40181      	104.98127      	91.27782       	113.847786     	92.89994       	68.13612       	100.017715     	90.12422       	80.240814      	108.75711      	98.099724      	74.57651       	100.90556      	94.59706       	75.53089       	101.73292      	91.88073       	60.902035      	79.5061        	74.068924      	57.95288       	79.77897       	94.989784      	85.29538       	98.25914       	101.5482       	89.87137       	97.22014       	101.625984     	93.96301       	95.27969       	101.80846      	97.06253       	94.1846        	101.33812      	99.485016      	92.732056      	100.79752      	104.97044      	92.04729       	101.272934     	108.05232      	93.68356       	98.97491       	101.08385      	91.829216      	81.94129       	
92.68926       	96.76538       	96.298096      	94.316         	97.564575      	99.00084       	92.34856       	97.149796      	97.733925      	89.58517       	102.58517      	95.42831       	87.6322        	106.28885      	95.907974      	86.70657       	105.83573      	96.146935      	87.715256      	105.853775     	93.61115       	90.3005        	108.11905      	90.55912       	90.38704       	110.11425      	91.27087       	88.83968       	110.17974      	98.62842       	91.11462       	106.25612      	96.57819       	95.411285      	106.70536      	95.555405      	98.21223       	110.84492      	93.55297       	96.23886       	110.99051      	94.10599       	101.35461      	111.13046      	97.43527       	105.54594      	111.46115      	101.365326     	109.15278      	116.738525     	105.4194       	114.62243      	112.91415      	96.25391       	103.59652      	102.13453      	92.221855      	102.02497      	103.0931       	92.8627        	103.82849      	101.32484      	93.613235      	95.89277       	80.07411       	67.347786      	80.01497       	65.648026      	57.56619       	74.9646        	60.2585        	51.406876      	73.96669       	58.116085      	61.368504      	91.04625       	88.79544       	86.19726       	110.21379      	91.51463       	87.736084      	109.556145     	95.95141       	89.5949        	106.39023      	96.48974       	92.882286      	107.68922      	91.65715       	96.04133       	109.08654      	87.615105      	95.44707       	115.09881      	93.3145        	90.80643       	110.118355     	112.30753      	91.43283       	75.26099       	
94.10489       	106.719955     	112.184044     	71.18884       	103.45781      	113.44273      	75.36742       	94.701744      	113.77389      	79.54456       	92.29753       	117.940445     	85.249985      	88.998276      	116.04793      	89.085205      	87.93481       	115.676544     	89.11241       	88.8493        	117.644035     	90.68806       	84.48143       	116.96479      	95.64689       	84.859566      	115.1964       	104.03313      	85.696014      	111.19337      	108.73711      	88.08009       	110.88175      	108.774826     	90.61485       	114.36761      	110.53793      	91.17188       	111.93993      	113.71551      	94.22851       	115.02715      	117.64318      	101.67009      	114.97515      	118.99041      	92.48673       	108.78365      	113.86728      	87.904335      	103.04355      	117.18099      	92.49936       	104.190414     	109.64379      	83.23717       	86.89395       	91.387         	66.72549       	77.1631        	85.38056       	62.93697       	72.40194       	82.470795      	61.109783      	67.168365      	79.805824      	60.066086      	66.16386       	73.80069       	54.834915      	65.98571       	70.92768       	50.768124      	71.236115      	78.6438        	66.84134       	100.486015     	107.863884     	84.045746      	99.00725       	108.616264     	88.11548       	100.16116      	107.130936     	89.33826       	98.44255       	108.58199      	88.66076       	99.67985       	110.90185      	89.79768       	101.94161      	112.174034     	95.83918       	93.82807       	111.040634     	115.194176     	98.03775       	84.733696      	
111.01348      	80.89418       	97.4662        	111.902504     	84.3675        	95.657455      	108.8553       	83.98347       	96.155         	116.355034     	85.636185      	91.49799       	120.92614      	86.15844       	89.82636       	118.14318      	91.17723       	91.11408       	117.043304     	93.10021       	93.54367       	119.485855     	94.42365       	92.75142       	121.214485     	98.33282       	89.25809       	119.750534     	104.37183      	91.13764       	119.45405      	110.23804      	94.05434       	116.058525     	114.841995     	99.829636      	116.023445     	118.513596     	106.626915     	121.62639      	125.614105     	103.6634       	109.796715     	112.16101      	96.27634       	112.73739      	118.66137      	97.073944      	96.1836        	99.20399       	79.26526       	77.685555      	83.546646      	79.34591       	77.01991       	78.40461       	77.58904       	77.79285       	77.73064       	74.39157       	75.49505       	76.86006       	77.28296       	69.659966      	71.61629       	82.1992        	67.2054        	64.75996       	82.42752       	68.424034      	56.84345       	78.11391       	63.832233      	54.42818       	78.28455       	63.701347      	62.75812       	101.519455     	94.84546       	84.32989       	119.05846      	92.36426       	82.26472       	120.71654      	98.02481       	79.86918       	116.71762      	102.284164     	83.14997       	114.789505     	107.18495      	85.53608       	114.0791       	109.42781      	84.81588       	104.13797      	123.38306      	116.06937      	94.645226      	79.06135       	
101.426025     	82.98149       	96.22252       	114.51153      	84.84839       	96.06607       	114.741005     	83.2649        	101.028725     	121.5414       	85.334915      	95.958084      	122.47209      	88.91623       	93.57547       	120.690056     	95.09216       	93.60851       	118.85927      	99.02059       	96.996994      	119.941086     	100.540276     	96.505585      	123.76872      	103.33611      	94.391426      	127.79989      	110.52746      	95.83589       	124.3591       	121.31217      	99.099365      	123.56977      	124.58878      	106.52429      	126.53346      	129.76703      	115.82282      	123.74365      	109.672195     	77.74029       	89.19524       	97.1294        	71.17209       	76.46486       	97.40306       	75.873184      	71.109         	92.47475       	81.36124       	73.065         	88.17268       	81.41973       	73.41663       	88.28786       	82.16164       	67.543         	88.746544      	86.52955       	61.85195       	83.374664      	91.89165       	60.41619       	73.513176      	89.341385      	63.007744      	70.17945       	85.894485      	61.43434       	65.13612       	82.06911       	55.728413      	61.073166      	81.686386      	58.775005      	65.50768       	91.791885      	86.18095       	92.10877       	112.34883      	87.91939       	93.378586      	113.044464     	87.92911       	90.52913       	114.09132      	90.081314      	86.775185      	117.96033      	97.53517       	87.11405       	118.16346      	99.33273       	86.27157       	116.17504      	117.91865      	99.370476      	86.71244       	82.5961        	
86.4281        	110.60143      	87.33875       	103.7411       	112.622795     	89.40854       	101.11576      	115.56189      	91.857254      	99.59692       	117.005615     	97.145386      	101.208565     	116.64601      	97.49261       	102.2808       	118.665215     	98.64631       	102.85066      	120.67978      	101.311485     	104.58077      	122.02201      	102.775475     	106.99743      	126.07152      	105.545944     	109.85417      	128.12485      	109.760704     	113.79017      	130.70714      	110.06868      	118.56074      	138.51337      	115.797905     	124.311195     	144.95815      	114.25158      	80.060005      	72.81705       	50.4081        	52.077248      	89.863144      	86.46723       	73.83073       	91.205795      	88.87012       	71.86979       	90.518394      	94.02886       	65.82997       	81.85698       	95.02646       	72.943985      	76.71893       	96.7349        	78.72814       	68.14379       	96.042915      	79.63919       	64.67814       	95.18478       	83.978485      	59.96242       	87.58744       	82.2003        	58.356174      	81.07543       	83.49334       	56.034927      	73.426796      	82.65107       	53.08555       	65.27093       	81.15846       	58.804245      	65.93534       	98.98755       	89.785995      	89.73336       	113.32862      	94.157425      	88.205734      	112.24301      	97.56339       	86.85776       	111.166824     	99.735855      	89.53089       	110.05384      	101.879974     	90.96204       	107.76034      	109.39891      	94.24214       	97.534454      	112.307        	114.97384      	107.504135     	
84.333374      	113.107895     	91.631485      	91.96924       	116.06226      	98.037895      	89.057526      	116.12814      	104.641754     	89.934296      	113.818146     	108.36332      	91.97392       	113.365204     	111.94291      	94.61312       	116.01512      	116.368034     	97.11584       	114.84984      	124.637215     	100.43749      	112.93521      	131.34071      	106.92948      	111.71361      	132.85663      	115.18506      	112.363846     	136.13293      	123.96033      	117.53472      	143.12975      	125.95857      	121.030205     	153.63716      	124.526085     	87.51802       	100.74581      	78.321106      	40.09238       	61.06781       	59.378704      	32.245476      	58.068874      	78.11462       	72.10335       	90.56961       	101.50507      	76.77969       	86.74715       	102.16504      	80.04518       	81.144135      	103.794136     	80.184845      	73.50712       	99.22216       	85.772736      	73.30019       	97.603035      	88.02144       	69.74989       	91.26055       	91.08774       	70.169235      	85.82106       	87.05681       	70.049545      	80.26099       	86.397064      	64.16951       	71.23885       	83.22665       	59.267902      	68.806305      	86.00741       	66.22496       	73.040016      	101.05035      	98.778145      	95.75854       	109.94268      	98.93999       	99.2301        	109.455605     	96.799385      	100.05134      	113.18975      	91.22253       	96.26815       	113.9372       	101.44747      	94.86888       	111.1023       	112.05882      	100.787094     	97.23063       	100.483536     	107.63616      	
101.02111      	116.544136     	110.92285      	92.18692       	111.68421      	121.99601      	95.469444      	106.087776     	119.57601      	88.663246      	92.73486       	114.28342      	95.92531       	101.97714      	128.27066      	109.61419      	100.650444     	129.75739      	115.19453      	99.764435      	128.66121      	122.04776      	102.624405     	129.4652       	129.57788      	107.5971       	134.24074      	137.87854      	110.41885      	135.33275      	149.21083      	120.59867      	135.50696      	162.06013      	135.87006      	124.72175      	111.020676     	61.491516      	48.860603      	63.861507      	31.235737      	22.931997      	46.587864      	23.156567      	20.583513      	50.51968       	45.37255       	65.19349       	103.18083      	87.43523       	70.00319       	99.350655      	90.815765      	67.63604       	93.20191       	91.99716       	67.44571       	92.329575      	91.90543       	66.57495       	85.25183       	95.518036      	66.32462       	80.99688       	93.82403       	65.73517       	76.997955      	93.72112       	65.90618       	70.58317       	91.34639       	66.08543       	63.61825       	85.29347       	59.5438        	59.27333       	81.99118       	63.557495      	62.63922       	97.99496       	99.14659       	87.72773       	111.02892      	102.44566      	86.502075      	106.372505     	105.40149      	88.791595      	104.7775       	107.99512      	89.81257       	104.94999      	112.42015      	93.65561       	99.70222       	115.92597      	106.46758      	93.92785       	92.22852       	96.070015      	
117.29589      	100.194534     	112.3616       	92.78138       	95.12477       	109.08029      	95.50861       	97.71274       	111.61168      	95.84611       	87.68322       	93.83448       	75.51926       	78.405426      	95.668495      	94.84337       	105.60175      	120.41638      	119.574905     	110.48967      	119.28185      	124.482124     	115.43368      	122.160225     	129.74808      	121.62694      	121.37302      	137.73619      	130.77158      	123.180664     	144.65775      	141.65944      	127.55046      	155.0601       	158.5322       	108.55802      	85.379105      	73.51614       	39.709965      	44.121677      	53.595963      	27.339046      	27.178087      	46.060284      	33.440994      	28.444376      	52.055256      	44.481106      	61.9083        	102.472046     	88.08116       	68.03634       	94.428925      	91.455864      	69.53194       	91.20201       	92.515434      	71.41291       	85.27691       	93.1244        	71.76501       	82.52998       	90.597725      	69.56837       	79.9706        	90.95312       	69.28789       	77.302666      	88.63805       	68.99837       	74.44662       	82.82577       	65.85755       	71.85058       	76.31324       	59.240616      	67.959625      	74.10142       	59.11581       	78.77309       	101.84204      	89.658554      	102.80516      	111.24064      	85.771126      	100.71879      	113.02032      	83.65617       	100.30348      	119.25717      	82.4312        	96.47214       	119.93664      	87.42456       	93.181885      	120.835655     	110.07516      	89.03563       	84.67592       	93.95352       	
93.881966      	126.52087      	95.35733       	74.83676       	102.228714     	80.75635       	64.35725       	95.85015       	78.38903       	59.335304      	88.54451       	79.43271       	58.59037       	83.463715      	86.60127       	72.52943       	114.1972       	120.92362      	100.48925      	126.54294      	125.35832      	101.46391      	129.8679       	129.53687      	106.28728      	133.34354      	135.42471      	113.106064     	134.35403      	144.44771      	120.79111      	142.13568      	154.48628      	136.17917      	125.56642      	109.494835     	65.05921       	61.80812       	70.05736       	46.337505      	44.35217       	55.37498       	30.353119      	34.925262      	62.530098      	41.756596      	31.695976      	60.385822      	70.55113       	79.45178       	97.62336       	86.090744      	77.15001       	94.78087       	87.52372       	77.76412       	92.41527       	83.29849       	76.81789       	92.61389       	81.58487       	73.708694      	92.28438       	82.68075       	69.148994      	93.170166      	77.883965      	67.36065       	90.65731       	78.884514      	64.41015       	87.843636      	74.40538       	58.183586      	85.317635      	73.19692       	51.05474       	86.98901       	73.58566       	54.385216      	94.49665       	100.25693      	80.95438       	113.57535      	107.93466      	81.012665      	111.07751      	110.89534      	82.902954      	109.82837      	114.99722      	83.78319       	107.65999      	116.09553      	84.40449       	98.70784       	123.17632      	120.707466     	106.98885      	88.93576       	
68.59803       	90.494156      	67.008736      	87.17522       	88.39649       	69.103         	84.06791       	87.06761       	69.02776       	81.78934       	85.19937       	67.33999       	79.79432       	81.92394       	72.32293       	88.46579       	92.137344      	95.91148       	118.59374      	122.05173      	107.80371      	119.044014     	122.258286     	114.40626      	124.7267       	123.85967      	119.50398      	130.98175      	127.1512       	123.03409      	139.65321      	134.7042       	132.48505      	149.51247      	113.76667      	86.0063        	84.46541       	64.89654       	53.95683       	59.460365      	51.542587      	52.93783       	57.760796      	49.284508      	59.303055      	67.68428       	54.912163      	69.7972        	89.01906       	83.83422       	88.612465      	86.25778       	85.88033       	87.43722       	84.743805      	87.295204      	86.03254       	83.41759       	88.61674       	85.62637       	77.99743       	89.90658       	87.2095        	73.448074      	86.94858       	88.21163       	65.88392       	85.87678       	90.767334      	60.554134      	82.074875      	89.15661       	57.358955      	80.34288       	86.12646       	49.57587       	75.699936      	82.65443       	49.81          	71.38093       	94.3898        	78.77968       	96.58702       	121.63144      	90.02096       	89.1488        	114.78706      	93.527214      	95.44983       	113.9557       	94.18762       	94.43407       	115.58296      	98.40868       	86.30696       	110.87426      	120.144485     	106.87397      	93.3559        	90.936646      	
90.49429       	70.504654      	89.31536       	81.953705      	71.46191       	85.52884       	76.94059       	74.852715      	86.02633       	69.352425      	71.8831        	85.97785       	66.3554        	63.981857      	86.33603       	72.50052       	68.80474       	99.0396        	101.71382      	99.770706      	120.54122      	103.563965     	105.31465      	121.730705     	102.00654      	109.52857      	125.08112      	106.32157      	107.48601      	124.796425     	114.47196      	112.74844      	129.08647      	123.75281      	122.8107       	132.25055      	113.83202      	102.85681      	105.64855      	83.154594      	77.38317       	80.69504       	72.42079       	73.588066      	82.047         	79.32613       	90.03934       	91.466515      	81.02278       	94.76705       	90.13745       	76.097336      	97.695015      	92.07036       	75.79906       	94.90522       	90.62945       	76.73488       	93.24799       	89.04234       	76.738045      	94.47953       	87.04766       	75.556114      	91.49152       	85.7321        	72.8769        	89.85735       	83.005295      	72.71501       	86.016205      	79.01991       	69.25457       	85.25513       	73.78222       	62.75798       	82.94865       	66.55199       	57.514343      	84.05425       	75.212074      	64.5001        	110.591415     	105.3551       	83.67746       	113.71361      	104.03686      	82.63162       	115.0311       	104.23964      	89.295         	112.70009      	104.7426       	91.73277       	111.776726     	113.92245      	96.56385       	90.54317       	97.75245       	106.66984      	
76.631546      	81.572426      	74.57514       	82.458046      	87.20106       	71.54871       	77.464645      	85.527374      	71.29561       	71.41334       	83.135086      	65.04339       	70.05653       	77.61659       	59.175613      	75.7242        	81.99052       	63.854923      	97.36684       	113.76237      	90.700226      	103.59195      	114.28344      	95.60548       	102.74842      	112.16389      	102.50632      	103.23754      	110.118004     	106.27265      	109.40052      	111.32335      	107.29031      	112.03773      	117.1371       	115.83174      	112.66623      	121.305695     	128.93788      	122.68535      	115.61931      	117.197624     	107.53183      	88.8217        	101.57628      	93.85489       	76.5051        	92.85487       	86.22092       	79.91755       	98.40679       	81.655556      	78.50367       	102.10898      	83.14497       	73.07011       	102.662476     	86.767944      	70.683846      	98.528366      	87.62535       	71.95299       	95.88888       	84.74003       	72.86809       	94.91003       	77.86259       	67.393036      	97.07226       	84.10638       	61.081577      	91.981094      	83.8167        	56.63277       	85.36937       	78.87941       	57.28785       	77.381386      	72.55151       	55.741142      	82.67851       	78.77992       	67.692245      	111.25394      	111.74577      	80.417915      	102.7913       	115.32617      	86.17412       	102.793076     	112.45802      	87.67358       	105.70737      	115.0206       	88.77663       	98.45023       	120.9579       	118.05249      	104.14682      	90.86903       	
87.13041       	77.46805       	79.070206      	83.799515      	79.05348       	77.792786      	76.138176      	79.74447       	76.03089       	72.22668       	78.61451       	71.27212       	66.39798       	78.63782       	65.545876      	63.28278       	83.92571       	68.39751       	75.12409       	115.93694      	96.045906      	91.77724       	119.749435     	97.442924      	88.677414      	123.27576      	103.42139      	90.335815      	123.60967      	102.327484     	96.44385       	121.66597      	104.65032      	96.867805      	130.9484       	111.69942      	94.68307       	137.13522      	120.87505      	99.9838        	142.18233      	122.4113       	86.40453       	114.55075      	100.83504      	73.34965       	98.641815      	88.438515      	68.181885      	94.68921       	94.32038       	66.65894       	96.080574      	99.23893       	67.681725      	87.01197       	98.246025      	71.26395       	85.57915       	99.04627       	70.3896        	83.109085      	97.43974       	71.761795      	82.640015      	97.846085      	73.14637       	78.11806       	95.02596       	72.941864      	75.58681       	92.129845      	69.43463       	71.73591       	89.58027       	65.31514       	64.234795      	84.26924       	59.460403      	61.162594      	86.27318       	67.31436       	68.03776       	102.56226      	97.787895      	91.603745      	111.51791      	99.50799       	95.20397       	110.27833      	102.04219      	93.84334       	108.97041      	106.67604      	98.39521       	104.924286     	110.162735     	107.40939      	100.95116      	100.19233      	
91.27718       	80.5393        	89.656685      	71.40154       	79.5945        	91.71569       	69.87871       	71.04691       	89.20947       	73.61559       	67.89813       	79.318405      	70.15484       	66.38756       	73.071495      	62.150673      	66.21585       	82.341064      	71.636765      	87.96842       	109.6293       	95.59579       	100.18028      	109.81701      	97.154785      	102.25826      	107.56974      	97.75717       	107.44901      	109.07087      	97.99486       	110.129166     	111.8506       	100.21854      	114.749054     	114.81745      	100.86557      	124.0763       	120.187        	103.630165     	130.30313      	134.47853      	94.9309        	112.63234      	105.73143      	74.80766       	93.95369       	88.49649       	68.8203        	94.84621       	90.486496      	66.72938       	98.437836      	94.12898       	63.28025       	94.1515        	96.79241       	66.02895       	91.88794       	94.81264       	70.71634       	87.49794       	92.80228       	70.78378       	87.9544        	92.89014       	65.87824       	85.10521       	94.973526      	66.839676      	79.4241        	93.02628       	67.100815      	73.88402       	87.12398       	67.54207       	71.71392       	79.27823       	61.307278      	65.6066        	76.54923       	62.934837      	72.80207       	92.08671       	91.560295      	96.92037       	109.81359      	95.64827       	100.178345     	108.344376     	96.37161       	101.96175      	108.49293      	94.82204       	102.31477      	113.913055     	104.53094      	95.58414       	96.65853       	103.115875     	
80.839615      	82.321785      	82.35686       	83.51855       	80.17708       	84.59801       	80.04228       	77.852684      	82.791214      	78.84721       	73.396645      	81.50511       	74.54889       	67.30194       	80.91155       	68.42094       	61.57485       	85.50102       	74.086624      	70.52006       	116.2144       	103.62955      	89.07012       	120.44903      	105.49992      	91.22665       	119.77559      	106.57311      	92.55401       	120.90027      	110.31873      	95.39462       	121.49428      	116.24621      	98.33426       	120.15026      	119.75472      	102.5466       	119.50451      	127.712265     	112.37679      	125.30843      	132.58324      	105.49771      	98.905426      	102.93145      	89.283356      	82.47934       	90.6021        	84.71213       	82.47096       	92.42348       	87.3842        	82.4637        	91.29723       	86.257805      	85.760635      	90.666145      	86.235725      	84.69898       	84.67961       	90.99862       	86.02629       	78.22379       	93.43596       	86.502235      	72.42697       	92.29857       	86.329765      	70.20207       	90.20492       	84.867386      	67.47942       	91.26039       	77.58835       	60.949707      	90.758575      	76.548065      	51.35095       	84.96978       	75.5413        	49.65703       	83.834076      	80.97375       	73.05345       	113.76395      	106.240166     	82.7897        	113.78968      	111.72033      	82.00263       	115.07475      	116.3899       	82.61138       	108.448296     	127.427055     	97.45989       	81.57079       	89.190674      	101.98764      	
