# www.neaspec.com
# Scan:	 	AFM
# Project:	 	20251007_PS
# Description:	 	
# Date:	 	10/07/2025 10:43:47
# Scanner Center Position (X, Y):	[µm]	49.99	50.01	 
# Rotation:	[°]	0	 	 
# Scan Area (X, Y, Z):	[µm]	5.000	5.000	0.000
# Pixel Area (X, Y, Z):	[px]	100	50	1
# Averaging:	 	1	 	 
# Integration time:	[ms]	5	 	 
# Laser Source:	 	4.5-15 µm nano-FTIR laser
# Detector:	 	R
# Target Wavelength:	[µm]	7.502	 	 
# Demodulation Mode:	 	Fourier
# Tip Frequency:	[Hz]	241,340.500	 	 
# Tip Amplitude:	[mV]	45.700	 	 
# Tapping Amplitude:	[nm]	79.665	 	 
# Modulation Frequency:	[Hz]	0.000	 	 
# Modulation Amplitude:	[mV]	0.000	 	 
# Modulation Offset:	[mV]	0.000	 	 
# Setpoint:	[%]	79.75	 	 
# Regulator (P, I, D):	 	4.206850	8.625812	1.000000
# Tip Potential:	[mV]	0.000	 	 
# M1A Scaling:	[nm/V]	0.426	 	 
# M1A Cantilever Factor:	 	1,000	 	 
# Q-Factor:	 	487.4	 	 
# Version:	 	2.1.11536.0
93.62256       	106.336235     	112.54208      	104.22767      	81.08513       	78.59894       	104.54251      	97.72936       	80.79267       	95.91816       	102.02714      	81.74688       	93.17258       	100.707954     	87.7531        	91.599236      	99.25864       	90.171646      	88.140366      	100.721405     	94.93304       	86.7549        	97.916176      	95.324715      	83.43067       	95.97179       	98.99199       	82.99222       	93.18739       	103.58587      	84.52182       	86.97031       	106.91607      	88.73905       	81.651085      	103.308876     	95.02295       	83.29015       	97.702896      	97.55286       	85.045204      	98.91441       	98.80205       	82.49993       	95.399216      	100.34062      	80.8149        	89.666         	102.607254     	83.44507       	84.225914      	103.9556       	93.492035      	82.49899       	97.23515       	97.07728       	85.954605      	97.79546       	95.9148        	87.02544       	94.62491       	98.00949       	84.712555      	92.91147       	102.767624     	82.38925       	84.53105       	105.3801       	86.65131       	82.002266      	105.57568      	95.20855       	81.982414      	99.96334       	98.618935      	82.11439       	97.164505      	98.0059        	83.748955      	98.306625      	101.960205     	80.67529       	96.41479       	103.47975      	78.30051       	90.40954       	107.154015     	73.02665       	78.28797       	100.289276     	75.250984      	77.77963       	101.41855      	78.15689       	77.48993       	91.9364        	60.678825      	58.241848      	79.844734      	57.939907      	
86.92238       	99.11397       	103.5075       	97.780975      	85.798676      	88.55611       	103.41805      	91.69429       	85.24666       	99.6853        	97.98798       	84.86242       	96.74205       	99.53133       	84.376045      	92.34334       	103.005356     	85.42248       	92.48144       	105.872116     	86.30573       	89.064804      	108.13407      	90.3935        	83.88876       	105.85071      	94.11488       	83.777626      	103.48563      	97.21549       	83.46046       	102.304184     	100.24527      	84.39825       	99.691666      	102.63736      	85.3781        	91.644         	103.07752      	88.808556      	91.79726       	102.51936      	91.936485      	88.45879       	101.87125      	96.02497       	86.5196        	96.853874      	97.07392       	85.336655      	96.032394      	98.03427       	85.37496       	92.230865      	102.97697      	87.92606       	90.92093       	104.22385      	91.78653       	87.04372       	102.43917      	95.9716        	84.10053       	95.81109       	101.67317      	88.393196      	96.31341       	99.95582       	87.60582       	97.01697       	99.72302       	86.39162       	96.06154       	103.700386     	85.02384       	88.98133       	108.142815     	88.54172       	85.078445      	106.08562      	96.195175      	81.82968       	99.05771       	100.104355     	83.87724       	97.41683       	89.17073       	64.57987       	78.597565      	76.0808        	50.858074      	70.12959       	72.74574       	45.7465        	69.18721       	80.62877       	50.857124      	68.76574       	85.490974      	59.60723       	
84.89696       	78.15257       	92.25554       	112.230515     	106.382095     	79.13229       	89.195366      	112.35218      	81.791954      	86.26218       	113.882        	87.83232       	79.23337       	113.667854     	90.930145      	76.369316      	111.84203      	96.17616       	73.80734       	108.72603      	101.554276     	75.711464      	101.0748       	103.885864     	75.87302       	100.65114      	107.374214     	76.561295      	100.78289      	110.43668      	75.056305      	93.3551        	112.96847      	78.97492       	86.89729       	114.28202      	87.24555       	78.70008       	109.93869      	91.06215       	79.89147       	107.23188      	97.63468       	81.755356      	103.03971      	98.68065       	81.61828       	100.86532      	99.89592       	81.67746       	92.81196       	101.32974      	87.059494      	90.92203       	98.15511       	91.237305      	91.76929       	96.4638        	93.49061       	90.87554       	95.99599       	94.58265       	89.88074       	94.908005      	98.68701       	89.87284       	89.25391       	98.96732       	96.68812       	86.42551       	97.30803       	98.2451        	85.21343       	93.16615       	101.3838       	88.44524       	90.18025       	101.05258      	89.70471       	83.65465       	100.944565     	96.86122       	88.6615        	90.873245      	77.80491       	63.78087       	60.814613      	55.423637      	57.08674       	65.84668       	63.482002      	63.25189       	68.932335      	70.92313       	68.66198       	67.139885      	75.70916       	79.622665      	67.13598       	74.016785      	
85.86417       	74.66279       	89.65333       	111.22505      	103.463264     	76.68947       	91.028694      	110.78973      	78.01981       	85.276245      	113.45373      	79.36992       	85.43961       	113.67834      	85.23131       	81.20568       	112.02432      	89.13056       	79.643524      	112.559456     	91.22163       	79.13485       	111.42411      	94.72027       	74.4098        	107.83428      	101.24531      	73.41827       	103.824425     	105.86787      	74.13653       	96.460526      	107.782455     	76.198654      	91.25276       	107.23835      	80.409546      	85.403885      	106.393326     	84.968475      	85.47953       	107.26521      	91.526596      	81.51026       	104.55855      	92.4061        	80.33573       	104.44339      	97.57315       	75.74442       	102.01744      	100.149864     	75.24068       	97.74199       	104.96272      	76.0523        	96.904915      	105.27599      	75.5557        	95.24715       	107.03722      	77.23031       	91.06682       	107.33729      	79.16017       	86.54988       	110.3705       	80.72414       	82.84871       	110.53174      	85.14946       	78.85251       	107.69217      	86.76033       	75.38725       	107.85719      	91.73842       	74.683815      	105.56165      	96.02475       	73.39387       	103.36392      	102.15235      	65.87928       	81.29886       	80.69197       	44.72614       	57.573654      	73.12627       	49.339443      	61.11564       	78.85406       	61.392967      	62.031155      	81.5017        	66.84643       	66.50036       	84.773605      	71.93493       	66.77326       	
111.79435      	102.74572      	84.20482       	72.65606       	92.46943       	115.48908      	86.19251       	78.49473       	113.497635     	92.9119        	76.801865      	111.111046     	95.23035       	75.794975      	107.4921       	97.35746       	75.14978       	107.24565      	98.63688       	73.017395      	104.608604     	103.307816     	72.97859       	97.78179       	107.472404     	72.912025      	93.18053       	111.09965      	77.5453        	90.70471       	110.789536     	77.96093       	88.65747       	112.10864      	80.37114       	84.30451       	111.66434      	82.57264       	79.74128       	113.55175      	93.56379       	75.98399       	112.86413      	97.608696      	74.24571       	110.74722      	101.2353       	74.34865       	109.5298       	100.58021      	73.635284      	105.92595      	103.03671      	73.413475      	102.218796     	103.57828      	69.17607       	105.885056     	112.996735     	74.01341       	93.6388        	111.97907      	77.72636       	90.27339       	112.68794      	78.83635       	89.82034       	113.71428      	76.71559       	85.728836      	113.998085     	79.037895      	80.69617       	116.83301      	82.96139       	79.34821       	114.26983      	87.45227       	77.01523       	112.77436      	90.32875       	76.91611       	113.06109      	83.71484       	54.30393       	89.271255      	76.97388       	44.256218      	66.51722       	75.68316       	53.558395      	69.46534       	80.279976      	59.507526      	73.11784       	89.267975      	62.523216      	72.29106       	94.33058       	70.78462       	
114.83818      	90.62141       	78.167885      	83.88787       	106.74878      	104.868805     	80.03219       	95.59749       	106.08913      	83.57861       	93.19748       	106.322296     	89.23719       	88.00583       	102.92208      	93.29013       	85.95394       	100.26808      	97.532715      	86.3613        	98.05884       	97.82064       	89.94706       	94.30057       	94.86931       	92.2511        	95.984955      	91.92041       	95.26081       	97.35411       	93.25615       	95.73897       	95.68152       	91.78812       	99.08508       	92.499886      	90.409615      	103.58727      	95.51067       	87.21168       	103.90953      	98.45748       	85.58667       	99.77615       	97.97311       	86.29544       	100.30498      	100.458046     	83.172714      	95.08598       	93.93078       	74.74466       	85.97559       	94.98784       	75.583725      	84.4793        	97.68849       	83.18006       	80.05864       	112.881744     	99.14749       	88.562294      	107.497925     	101.19913      	83.01566       	103.69643      	104.72121      	84.60584       	97.829605      	101.224365     	86.31515       	97.76739       	102.77576      	83.899124      	94.22074       	107.263115     	84.217415      	90.26116       	108.608505     	89.02442       	86.37059       	105.3863       	95.83176       	81.36738       	83.69617       	82.54757       	64.27078       	65.35755       	69.7863        	63.10628       	67.2172        	71.87505       	66.4324        	74.24898       	79.72999       	66.27955       	75.32836       	89.40384       	71.42286       	71.83319       	
84.39567       	108.60112      	106.83821      	90.79853       	76.54687       	97.25483       	111.29538      	77.86678       	89.17858       	113.09766      	81.8165        	82.10826       	112.263336     	85.31893       	79.40412       	109.03173      	91.26574       	80.046745      	107.29378      	91.12366       	78.99529       	106.631836     	97.23926       	74.10731       	105.536896     	103.08162      	72.842026      	98.06285       	109.726        	75.68037       	95.86532       	110.16596      	78.81168       	91.57581       	109.762535     	80.686615      	88.77381       	111.824425     	81.98697       	83.42167       	113.4438       	83.36459       	75.917625      	106.54135      	80.107185      	65.68749       	100.2238       	87.36528       	66.84698       	97.0439        	87.30295       	57.27349       	77.34742       	68.2424        	46.24067       	71.61239       	68.99269       	46.775024      	74.191         	86.22803       	73.146355      	112.62882      	127.11614      	98.27099       	101.19031      	120.67765      	101.82178      	94.67978       	116.885345     	100.59798      	93.79239       	113.86514      	102.37145      	85.97262       	110.400375     	108.594284     	89.521355      	103.86777      	110.52083      	88.452995      	98.65693       	109.993645     	93.363594      	93.51183       	97.688225      	81.809235      	71.66607       	77.59531       	69.85489       	60.19265       	71.76837       	77.67016       	66.71679       	74.65088       	83.54671       	70.46545       	78.70602       	88.67695       	73.85363       	74.62227       	
99.77359       	113.65852      	106.32114      	85.17274       	77.93514       	103.869026     	106.37062      	79.442535      	97.52686       	109.37935      	78.99592       	97.99556       	109.886795     	80.24739       	91.31886       	113.14721      	80.95048       	87.24466       	114.007805     	81.69523       	84.765015      	114.4097       	84.697075      	82.95874       	114.14836      	92.67786       	75.88395       	109.31158      	90.64491       	76.8043        	111.71191      	95.8141        	73.77656       	107.50007      	101.62276      	68.09716       	94.42021       	97.31881       	63.26934       	87.33717       	100.20171      	70.71324       	87.07307       	90.5399        	53.253788      	65.40714       	84.955475      	50.205135      	59.617146      	87.03403       	55.33472       	54.168938      	90.29839       	63.38548       	58.544632      	91.18794       	68.70344       	58.43297       	93.26563       	75.2361        	73.12822       	115.64894      	108.35246      	104.308334     	138.31332      	115.486244     	95.58378       	129.16615      	112.12102      	96.51314       	122.09759      	105.58387      	95.53859       	119.97295      	103.18039      	89.87808       	120.88238      	103.22191      	82.35953       	116.73543      	113.02326      	84.41748       	110.90235      	112.56908      	85.0254        	91.44292       	87.844475      	63.99568       	80.67583       	73.84087       	52.519474      	80.00245       	84.58839       	57.441345      	81.874146      	90.84831       	63.659378      	84.287674      	91.34831       	68.46285       	
104.96783      	94.62733       	85.57878       	85.72612       	99.59095       	104.9541       	86.852104      	91.71139       	106.14563      	90.7974        	88.41774       	107.12299      	89.9322        	85.27539       	106.11728      	96.921875      	82.81326       	101.533516     	98.94964       	83.72266       	101.19772      	101.12655      	81.89781       	99.809326      	103.15817      	81.64766       	92.61435       	99.81349       	75.19499       	79.57556       	94.31691       	79.42711       	77.24197       	96.86193       	84.72181       	76.17703       	86.43408       	69.37055       	54.12164       	73.687294      	72.201164      	51.649643      	70.3943        	77.5748        	59.26744       	68.24218       	82.10114       	68.004486      	70.79208       	84.96644       	69.870026      	72.66247       	91.73263       	71.42671       	71.47791       	93.573456      	78.32189       	66.75792       	93.36004       	86.32288       	73.21636       	102.05415      	114.84245      	115.65655      	128.95694      	127.34785      	106.48043      	122.33824      	123.85814      	100.33001      	115.03901      	123.99946      	96.30849       	105.05695      	126.204414     	99.17347       	98.881996      	123.49219      	102.85379      	92.736664      	119.30946      	104.89055      	91.49877       	118.21557      	102.84594      	78.90423       	96.49641       	85.69939       	64.06893       	80.643974      	81.176346      	58.241417      	77.448685      	90.726364      	66.509         	75.186676      	92.10808       	77.58957       	73.15213       	91.54742       	
97.48964       	112.94006      	108.35052      	90.28182       	82.559685      	102.297356     	105.80458      	83.04145       	100.54191      	105.68083      	81.04269       	102.499626     	108.540764     	77.9882        	98.28509       	110.536255     	76.90777       	94.17211       	110.23495      	83.09655       	92.303604      	110.83249      	83.09801       	91.51127       	110.891914     	84.91662       	87.63591       	101.08781      	65.1545        	58.854317      	83.85273       	59.676743      	49.11566       	77.23542       	60.105843      	48.84468       	80.53984       	67.63447       	51.414852      	82.19698       	81.5173        	55.76691       	81.309006      	87.11419       	62.754276      	76.13121       	91.37792       	67.280045      	77.08346       	94.35389       	71.050606      	75.76741       	96.31459       	78.665375      	73.04571       	96.388176      	81.72957       	69.989716      	94.76031       	86.39213       	71.734795      	99.61552       	111.14041      	108.22071      	125.828476     	135.169        	111.97498      	116.23924      	128.17311      	107.72444      	109.22831      	122.98927      	107.52213      	101.10552      	120.00263      	109.48918      	96.298965      	116.7975       	110.42209      	93.47457       	112.396355     	113.890785     	90.703995      	104.18685      	117.53919      	91.09138       	83.378365      	96.63058       	74.463         	66.743225      	78.975945      	68.367905      	61.70904       	79.49362       	81.20016       	70.90063       	79.51054       	84.52795       	72.67114       	83.7024        	
98.95596       	110.16971      	102.4391       	87.72902       	88.40588       	106.21639      	100.263115     	87.82104       	103.84464      	96.567345      	87.73853       	102.82928      	97.15532       	88.913605      	99.34281       	94.986664      	89.936905      	98.63509       	91.970985      	90.226         	98.09257       	89.887924      	92.75217       	98.19409       	82.271965      	70.330444      	67.50011       	51.47727       	57.87821       	71.60158       	57.83059       	61.851997      	76.57831       	63.310265      	66.97881       	82.10413       	67.9558        	68.64815       	85.21917       	68.48369       	69.1252        	85.36977       	73.43515       	72.51436       	99.334114      	83.098915      	70.06416       	96.74178       	84.08033       	71.2993        	94.82189       	87.19579       	71.00876       	95.9642        	86.81303       	70.05275       	96.606285      	89.602295      	66.424286      	91.57821       	93.584175      	72.120346      	105.48569      	120.33618      	111.518486     	130.40128      	135.81754      	103.3163       	121.104935     	133.01399      	98.930466      	113.21837      	129.33723      	95.971405      	107.07403      	127.9303       	93.80998       	102.8094       	128.11316      	94.2411        	96.64759       	126.01936      	92.57822       	91.01922       	127.8082       	102.68469      	77.307846      	106.027016     	87.02742       	59.28882       	86.02233       	74.46243       	53.866245      	85.76029       	78.0478        	57.233536      	90.79607       	89.5649        	56.71121       	91.395386      	
108.25601      	96.240074      	91.31619       	96.596436      	108.70607      	104.925285     	89.51843       	100.462906     	104.04449      	94.395874      	96.90475       	98.238         	99.47478       	99.067474      	91.03285       	95.5358        	104.151726     	89.37255       	93.4629        	104.854385     	91.43678       	91.84813       	104.07959      	89.77356       	79.27558       	81.08974       	60.64099       	61.189182      	74.95518       	55.667526      	62.19827       	83.04631       	61.72444       	65.83282       	88.076546      	66.91304       	71.70899       	87.927574      	71.96399       	76.11045       	87.67431       	76.40396       	80.04333       	95.05047       	75.53175       	82.11649       	95.55412       	78.0089        	82.88387       	91.14937       	83.72462       	86.57186       	86.25333       	86.03209       	86.79414       	85.97143       	88.25049       	84.38416       	86.22913       	86.38306       	82.98371       	87.95166       	96.53433       	92.83224       	119.24442      	135.58047      	115.63698      	123.263664     	127.347694     	110.59199      	119.30333      	119.71303      	107.08594      	116.33754      	114.446815     	101.37725      	111.88179      	115.61327      	99.365685      	110.38408      	111.64982      	99.64185       	111.009415     	107.0722       	100.828156     	111.74255      	100.06215      	83.410904      	95.61433       	83.65157       	73.82783       	80.046646      	71.362045      	70.758255      	80.12648       	74.86008       	78.11788       	82.02309       	75.17783       	83.41301       	
92.92244       	94.88415       	100.20171      	102.84783      	97.222694      	91.904434      	98.336624      	101.32156      	88.444664      	97.85377       	101.22611      	87.31212       	93.83836       	104.999405     	83.88255       	93.633255      	106.05802      	85.55191       	95.18038       	102.00488      	87.84506       	95.142876      	100.27221      	88.16035       	79.17945       	76.469315      	67.565445      	65.98592       	62.81565       	61.572628      	71.04451       	66.10888       	68.71987       	76.7603        	67.84245       	75.80301       	80.04333       	71.02458       	80.48804       	80.38537       	71.98557       	84.71101       	86.916626      	73.35786       	86.544785      	89.191635      	75.245865      	87.92529       	88.497574      	79.51124       	93.15287       	89.00514       	75.62842       	93.83255       	92.2639        	75.756996      	94.058235      	91.72339       	73.53046       	91.39308       	92.25536       	71.28055       	90.75673       	109.479576     	90.84974       	126.91515      	140.63675      	111.322266     	119.24609      	134.02316      	106.21465      	108.51053      	131.40616      	103.79778      	104.37206      	127.61784      	102.21251      	99.45846       	126.16578      	102.01046      	96.59728       	123.329155     	99.608894      	93.81038       	122.02694      	100.41663      	94.89479       	112.97961      	82.068115      	79.93393       	91.55455       	74.817635      	66.222725      	78.19908       	75.6539        	71.6892        	80.59211       	80.91133       	78.719635      	79.81978       	
112.58861      	112.17148      	95.41729       	78.80799       	93.05017       	116.153366     	88.20623       	84.21184       	116.35319      	92.22006       	79.31755       	114.933266     	100.70365      	76.261444      	110.55472      	104.05248      	76.07869       	105.06872      	106.14314      	76.67386       	104.649445     	105.6247       	76.49455       	103.924126     	100.518326     	58.758297      	78.95181       	84.72441       	46.81928       	65.89639       	85.386         	49.82028       	69.4679        	93.169464      	56.174946      	70.969536      	97.81215       	64.818985      	67.75335       	103.41298      	64.166534      	69.77743       	108.41731      	68.34935       	66.62345       	107.38948      	76.65205       	66.57228       	107.81928      	82.192314      	66.76204       	106.98298      	86.82347       	67.8968        	101.63691      	87.06784       	67.561584      	102.69535      	89.881966      	66.01441       	102.160416     	91.87598       	68.47299       	106.78093      	107.23216      	97.2586        	141.82938      	133.53453      	110.349106     	134.85243      	121.93746      	103.38598      	128.11952      	119.73007      	99.68786       	122.68628      	116.80204      	98.72745       	118.7545       	112.66593      	100.687416     	113.93373      	108.45454      	103.336426     	112.059616     	107.47558      	103.65516      	110.77677      	94.02685       	87.93375       	90.11142       	77.679276      	75.24938       	75.824165      	69.34334       	78.24453       	79.20928       	70.44653       	84.27393       	86.10323       	
92.61165       	109.969574     	110.01759      	94.27988       	86.9007        	109.2354       	106.37761      	83.90512       	101.69116      	107.58976      	86.99348       	98.29808       	103.99529      	88.69808       	98.566216      	95.62076       	92.39517       	99.82882       	96.65194       	92.87366       	94.3199        	98.79664       	96.39376       	95.76547       	87.31465       	80.27508       	79.82743       	69.05666       	68.92237       	70.078545      	59.092125      	70.499504      	75.70974       	64.18165       	76.1324        	79.17737       	65.92642       	80.89091       	83.14037       	66.83537       	83.457596      	85.60638       	69.917984      	84.4069        	87.39458       	73.58237       	86.506874      	84.13091       	75.2908        	89.24073       	84.060425      	81.071815      	87.59262       	83.12587       	81.914474      	87.12727       	80.39061       	86.72096       	86.781425      	77.66948       	84.78203       	82.92813       	80.245285      	89.43597       	92.848495      	98.563995      	131.45148      	124.54391      	114.840805     	123.96323      	114.19441      	108.91928      	117.22492      	106.84563      	108.73107      	116.38253      	101.266975     	106.989105     	115.168304     	104.16021      	98.94066       	111.86296      	105.80769      	98.54613       	109.13304      	101.63489      	101.662224     	112.455826     	96.313286      	83.611984      	99.93617       	72.826584      	62.57271       	86.89906       	70.37896       	58.55353       	84.85584       	78.71002       	65.7038        	86.813324      	
83.6472        	70.56253       	74.014046      	104.79225      	124.96045      	108.72372      	94.86027       	118.71925      	110.20057      	87.366486      	112.22869      	110.99869      	87.9589        	109.0893       	105.7096       	86.67195       	106.322945     	104.79655      	86.02319       	107.08137      	105.62113      	84.852264      	105.35605      	109.17334      	82.6733        	88.795135      	93.34962       	63.948433      	71.382744      	80.12654       	53.563248      	69.03212       	80.42152       	58.214127      	74.14644       	88.63604       	61.857662      	71.47985       	92.69345       	68.328804      	72.70666       	94.59273       	74.794266      	74.629364      	92.249306      	75.29777       	77.24227       	98.24965       	75.00733       	74.89657       	102.23218      	79.36808       	74.66326       	100.36077      	82.62646       	73.309425      	100.63899      	80.797455      	69.32034       	100.17322      	79.84252       	68.96579       	101.33015      	82.44987       	70.23024       	114.32325      	109.96982      	110.162125     	135.4234       	124.92889      	102.008064     	128.1015       	118.668816     	96.15702       	124.69136      	112.33672      	91.94197       	119.73693      	112.56556      	90.17757       	116.269295     	112.450645     	88.515594      	112.73641      	113.601        	90.35303       	112.01435      	109.10819      	90.835         	105.48535      	92.283485      	70.61193       	84.971146      	74.81772       	54.948032      	79.2555        	77.18382       	59.49262       	85.14587       	85.186066      	
94.40429       	98.4056        	88.85385       	90.82187       	110.21915      	132.0308       	117.4292       	95.75783       	123.06447      	113.29204      	93.539055      	118.70711      	110.67742      	89.420845      	117.32047      	108.81444      	86.799644      	114.2255       	111.92989      	86.95859       	109.95598      	108.99646      	87.78812       	108.14957      	106.09105      	82.79346       	90.736534      	88.54357       	65.0172        	79.414604      	70.762215      	54.74506       	81.898636      	79.9311        	63.216637      	79.00846       	84.640495      	74.4445        	79.27011       	84.15329       	80.813805      	79.15195       	85.6899        	80.75811       	80.39025       	87.22344       	84.680145      	80.71583       	87.90535       	90.71921       	76.661255      	88.78267       	94.71077       	75.73554       	90.764656      	95.30579       	76.02868       	90.090836      	96.27056       	76.53963       	91.25976       	93.88264       	72.986946      	90.041626      	98.81417       	81.875015      	104.9744       	130.17245      	118.51903      	127.27042      	129.0801       	106.59975      	123.142494     	121.026276     	101.387344     	118.93294      	122.663        	98.11793       	117.062904     	116.57895      	96.242645      	114.577995     	116.12788      	94.13752       	112.39531      	115.89351      	93.33468       	109.68598      	113.3366       	91.5743        	97.22578       	94.26859       	69.48449       	83.37431       	78.98263       	57.679966      	79.73227       	83.00947       	64.38988       	80.893936      	
67.656654      	81.17818       	95.39147       	108.532684     	111.716484     	107.67399      	126.77086      	110.868805     	98.12132       	122.55726      	111.625565     	95.17138       	118.12768      	106.12952      	97.655235      	113.29423      	101.820915     	97.60501       	108.55558      	101.67854      	97.9292        	102.32169      	103.797516     	100.80603      	95.985016      	104.74682      	90.80284       	74.373085      	85.88237       	81.13516       	62.318474      	73.55759       	72.23891       	62.56105       	79.3223        	78.32742       	64.65763       	82.75399       	86.23687       	66.61105       	82.958755      	90.84683       	65.849         	83.85523       	96.56149       	68.19939       	83.43949       	98.24544       	71.16568       	84.27919       	99.91966       	72.44925       	83.61761       	102.08498      	71.68054       	82.40703       	103.89091      	72.8748        	81.20531       	104.81835      	73.890526      	78.72147       	103.59794      	71.54611       	78.77049       	106.41778      	79.9784        	105.393486     	146.38449      	111.195786     	116.34352      	140.56651      	104.724        	106.24654      	131.88306      	105.457726     	101.46626      	127.027626     	105.676895     	100.14282      	121.16534      	99.25281       	101.01991      	118.99053      	95.278564      	96.12908       	117.98612      	97.38693       	96.85038       	114.29449      	94.87267       	80.76218       	91.27394       	71.79772       	74.012856      	79.789215      	60.87496       	72.25401       	84.76806       	68.706184      	
80.89113       	99.25794       	88.53187       	72.620735      	90.58061       	135.15697      	125.6065       	96.41896       	121.542496     	120.12838      	94.406876      	113.57692      	119.46818      	89.77938       	113.96229      	118.15772      	86.88583       	108.98198      	116.22275      	85.95093       	103.978        	116.46159      	84.42567       	101.931595     	116.13122      	87.9048        	99.21167       	98.41607       	71.79411       	82.25166       	86.33679       	52.59468       	72.72623       	85.642136      	57.512203      	73.72137       	87.68979       	67.2749        	77.29218       	86.95609       	71.40976       	82.93802       	84.26749       	74.636566      	88.90791       	86.25898       	72.06422       	90.32175       	87.5503        	73.54443       	92.65258       	91.006294      	76.89928       	91.557076      	88.04272       	81.89662       	95.14123       	83.77025       	78.39281       	97.96476       	82.44261       	78.627495      	96.099846      	83.89279       	80.207         	90.65426       	92.573074      	98.991905      	106.81969      	129.02602      	126.1826       	116.685616     	120.52319      	116.21264      	111.64725      	119.10958      	109.68128      	105.61217      	120.471504     	106.901505     	95.70212       	121.864        	110.30867      	93.24467       	115.240715     	105.77128      	96.12224       	114.992645     	103.21134      	93.878006      	115.71575      	85.362564      	72.629524      	101.19257      	84.73903       	69.85014       	96.50455       	80.43196       	75.00555       	104.375046     	
91.02646       	80.38506       	72.081955      	77.045784      	115.074066     	134.97887      	108.60201      	114.12126      	127.10795      	102.28326      	107.80395      	125.433426     	100.198296     	100.60511      	124.62146      	98.0133        	95.74128       	125.14352      	97.65527       	89.41706       	124.08006      	101.18588      	88.525276      	117.59102      	104.353424     	86.749466      	117.435585     	95.73954       	70.73381       	100.99272      	79.29062       	54.261703      	84.89143       	79.28487       	50.49134       	80.40621       	88.23138       	57.939407      	78.893295      	93.537186      	65.99476       	78.46647       	95.70431       	68.602         	78.76258       	102.21658      	69.380516      	74.94371       	107.76482      	73.61585       	69.00992       	108.18306      	82.65243       	68.39363       	107.988785     	88.60198       	67.71147       	108.8269       	89.16147       	66.799835      	107.66722      	86.31563       	62.2209        	102.86258      	91.70304       	64.680084      	103.200554     	99.629974      	88.63201       	135.83452      	135.22928      	104.733444     	134.0665       	123.13965      	99.23247       	126.8656       	121.19612      	95.98742       	117.92565      	118.70215      	97.36828       	110.70989      	113.71875      	98.10278       	114.723076     	106.26983      	95.64617       	113.30411      	106.254814     	93.62111       	111.719574     	107.19442      	95.682915      	108.01625      	102.98539      	97.50838       	97.79928       	99.2967        	106.51047      	103.46381      	
92.7242        	95.71749       	79.68058       	68.30103       	90.93335       	132.84496      	119.612305     	103.26617      	135.2893       	117.817924     	96.40772       	126.472885     	109.6955       	96.7244        	123.74665      	108.3258       	96.623405      	123.56141      	105.48217      	93.2948        	121.45085      	105.44088      	96.05883       	116.525986     	105.879395     	93.42296       	115.92953      	102.241806     	82.33742       	100.02206      	79.40557       	66.45132       	85.377205      	69.16307       	66.6382        	85.303795      	73.56489       	75.38054       	86.69527       	77.70615       	78.40976       	90.9857        	81.720825      	80.128136      	87.6718        	84.289665      	86.426346      	88.18553       	83.43698       	91.140366      	89.77972       	79.207466      	93.808876      	93.73832       	79.49438       	90.34323       	97.85686       	82.28153       	84.61962       	101.48225      	85.65831       	78.67232       	100.04619      	85.64011       	78.538216      	96.67854       	83.96674       	84.41276       	116.396324     	103.07185      	118.44594      	144.51416      	118.018936     	104.47745      	136.72105      	117.68778      	102.26878      	127.85229      	111.61337      	104.09395      	124.81336      	107.51606      	101.90727      	124.040085     	103.48155      	99.028305      	119.14774      	103.58156      	98.81434       	112.27264      	104.599014     	101.656784     	108.49907      	102.71948      	103.52176      	105.39453      	101.04744      	102.269646     	101.181694     	98.09213       	
79.13142       	76.503555      	78.465866      	83.65154       	90.15423       	103.65934      	124.05346      	115.86061      	121.50274      	114.664185     	105.1735       	119.984955     	112.82156      	96.734665      	117.10066      	111.39162      	94.87653       	114.86325      	110.87115      	92.02836       	114.75632      	109.78423      	88.226006      	113.150665     	109.63765      	86.59539       	112.073784     	105.93401      	82.555176      	96.74977       	88.538345      	64.59169       	82.39399       	69.923386      	62.402245      	77.14734       	73.78344       	71.62493       	80.336105      	79.61899       	75.97538       	78.969315      	83.99577       	80.16618       	75.13747       	87.38782       	86.61122       	72.66031       	90.718346      	89.35034       	75.24266       	91.75959       	88.04039       	76.44043       	97.23363       	87.44804       	70.19023       	98.8618        	93.03545       	69.577736      	94.069855      	94.89892       	71.87979       	90.640884      	89.661705      	72.79475       	95.4789        	98.48968       	83.86525       	108.38223      	126.04674      	116.73469      	131.5226       	126.76209      	111.32114      	118.993195     	119.92223      	110.48445      	118.42601      	108.32922      	105.83865      	120.64577      	102.46258      	100.01431      	118.09565      	104.214676     	101.644135     	112.22156      	103.21642      	106.461105     	106.49897      	97.80106       	109.25163      	108.38529      	91.75685       	107.03215      	111.356285     	89.814224      	104.210884     	106.05322      	
74.33951       	91.31827       	92.1445        	83.60022       	80.24814       	101.4947       	119.85364      	117.5403       	120.86754      	122.92436      	113.57585      	112.13321      	115.73942      	113.044395     	105.89509      	111.12137      	112.147995     	104.243904     	105.686264     	113.403244     	101.21087      	103.5183       	111.96269      	100.79279      	102.37608      	113.9404       	94.529915      	99.16115       	117.03183      	83.26264       	79.86772       	98.04084       	69.146576      	66.11293       	86.341194      	63.204082      	67.482315      	91.18564       	67.66031       	71.66862       	93.12854       	70.23243       	74.76083       	95.4373        	71.3463        	78.82169       	95.760666      	74.86667       	80.78728       	92.17815       	82.11413       	78.11459       	88.746826      	89.45208       	76.10038       	85.779144      	88.42855       	82.16113       	87.994194      	87.60257       	82.14718       	95.14835       	93.15009       	80.595856      	95.366776      	100.031364     	81.859634      	103.305534     	111.513435     	85.18676       	123.006065     	136.32442      	109.802376     	123.46192      	122.394356     	105.85425      	122.46652      	113.50078      	99.89049       	121.50542      	112.8173       	99.290115      	111.56775      	109.90613      	102.42528      	104.67868      	106.545906     	105.57624      	102.88454      	101.524666     	105.862335     	100.90548      	98.03677       	106.46247      	101.97475      	96.56946       	107.18261      	97.17326       	92.8369        	109.35191      	
77.14511       	69.1278        	77.260895      	91.12279       	89.449615      	77.04837       	108.3564       	138.21382      	109.092026     	116.99703      	127.51334      	103.2974       	112.790665     	124.70541      	98.629585      	105.43315      	123.59219      	97.076225      	102.43428      	121.814705     	92.30244       	100.92015      	122.24029      	90.276764      	95.604004      	120.69914      	93.819626      	95.96245       	115.63029      	91.49864       	84.007645      	98.81543       	71.039314      	70.68318       	80.54715       	67.20082       	69.53177       	80.86405       	71.4808        	76.400536      	82.05628       	73.82405       	82.4552        	81.04979       	75.96838       	84.97798       	81.60487       	79.17172       	87.5587        	80.7226        	84.37099       	89.83705       	80.11433       	87.50773       	94.333046      	81.66838       	92.63154       	97.43469       	88.15762       	94.80587       	99.81816       	96.15443       	108.98323      	107.3357       	104.767365     	114.899        	111.44378      	111.75385      	125.015755     	115.21086      	115.83328      	123.30861      	108.24336      	114.77299      	115.942505     	101.47534      	112.91157      	114.81904      	94.4609        	110.39971      	111.77568      	91.8804        	107.01694      	111.34914      	88.9674        	107.344574     	111.682755     	85.79297       	105.53421      	112.74655      	84.5038        	100.62304      	113.00517      	84.1377        	100.2542       	110.73711      	81.77413       	100.84927      	112.86079      	77.014534      	
78.80759       	81.71738       	80.18371       	78.894585      	80.10697       	90.16712       	96.94569       	112.47453      	124.913414     	116.93243      	113.47413      	118.78535      	110.0845       	108.1763       	117.73856      	105.23722      	104.43107      	114.9447       	101.95705      	100.66451      	113.23817      	98.947556      	97.21354       	120.21818      	105.287636     	96.65351       	114.42444      	98.43347       	94.30711       	113.181625     	92.395134      	78.854576      	92.64352       	71.38582       	64.08597       	78.49466       	65.078125      	68.228775      	82.76374       	67.99875       	72.574326      	87.71013       	70.24804       	74.44068       	91.80167       	74.92342       	79.52274       	95.32519       	83.72145       	87.62515       	95.58664       	86.304596      	96.09668       	98.14894       	88.162964      	104.02961      	106.9117       	95.82157       	112.36479      	113.91104      	104.178116     	117.21347      	117.822754     	115.9265       	121.62549      	109.972046     	109.4089       	114.33122      	103.8656       	105.976845     	110.58947      	104.04517      	102.978134     	99.30073       	106.09835      	103.410904     	95.80054       	104.17188      	101.41863      	96.269485      	105.709526     	96.03932       	94.790405      	108.456375     	94.81053       	90.79794       	107.84781      	96.498344      	88.846054      	107.67986      	93.44079       	89.96064       	108.92868      	91.5665        	87.5501        	110.64654      	93.55307       	84.106316      	111.34994      	94.71343       	
67.381905      	76.606606      	90.57003       	94.56896       	77.34227       	70.27563       	102.16513      	106.56092      	106.76602      	125.43871      	122.72787      	110.92054      	115.43703      	113.80423      	109.40838      	110.346306     	108.25434      	106.7664       	111.1044       	106.26729      	100.67317      	110.45499      	106.590126     	99.89904       	106.63741      	100.90512      	102.22074      	106.89975      	95.62789       	104.64865      	105.994576     	83.10229       	84.04374       	82.9174        	70.48371       	74.091995      	70.968155      	63.79855       	83.21031       	76.83932       	69.87846       	90.745514      	84.84876       	72.97486       	96.070595      	91.26781       	83.432625      	100.90084      	102.113884     	100.102325     	111.280876     	106.22314      	109.99443      	120.0951       	107.06062      	112.100815     	123.27896      	108.49435      	107.48303      	117.64389      	100.58275      	104.337265     	110.800415     	96.84477       	102.09576      	107.12985      	93.87072       	101.76281      	103.0457       	95.41089       	99.27567       	101.20965      	93.43825       	101.18094      	95.80838       	94.58481       	101.761024     	92.706055      	95.16284       	104.13143      	88.98463       	94.83705       	102.22871      	88.01588       	94.345695      	96.4546        	91.42418       	98.52119       	93.7165        	86.43593       	100.57762      	95.45463       	83.492905      	101.58471      	98.401474      	85.082886      	100.19245      	94.60798       	85.457245      	100.393814     	
95.01297       	87.64111       	72.51195       	64.55387       	79.85619       	97.57883       	79.7651        	88.76993       	125.15197      	122.48919      	114.314766     	125.08838      	109.81086      	113.98927      	123.8653       	104.02047      	106.11494      	119.65206      	101.87324      	104.768326     	114.282974     	100.81937      	105.499115     	111.278854     	96.069084      	108.12073      	106.44327      	95.89783       	107.20703      	107.72415      	96.10185       	100.914825     	85.75186       	76.472176      	95.034966      	86.89144       	67.89441       	88.45098       	86.47936       	75.319046      	102.24918      	97.729614      	89.716225      	109.397255     	108.27775      	95.60335       	121.38319      	115.55052      	98.840706      	122.558876     	113.56701      	95.78665       	115.33337      	108.56836      	88.42958       	113.8601       	107.65728      	85.13309       	113.32506      	106.14265      	80.75683       	109.87953      	108.57828      	79.87823       	101.03914      	111.64917      	81.40014       	102.793915     	103.289604     	81.43397       	102.95191      	102.58507      	78.8393        	101.00814      	107.279366     	78.7485        	98.22537       	107.61028      	80.03484       	94.95389       	104.211494     	81.62041       	98.51653       	103.917145     	82.512215      	99.23549       	97.47963       	83.504326      	99.948135      	99.41348       	86.933464      	94.77802       	98.546875      	93.06288       	90.14938       	98.91713       	95.97974       	88.36708       	101.45923      	92.33321       	
88.14869       	74.20562       	69.764984      	77.06444       	88.552734      	79.17191       	73.67788       	98.39685       	97.60152       	113.19673      	134.21657      	114.44682      	105.408165     	127.41668      	111.00378      	100.88406      	119.6197       	108.44182      	103.41047      	112.40494      	104.94141      	103.796234     	112.54191      	98.43715       	102.17099      	114.46656      	101.68906      	96.41381       	112.52729      	103.973885     	94.64177       	111.84399      	102.90752      	92.45507       	108.069954     	97.68115       	89.750175      	107.576836     	93.111565      	96.94402       	120.62928      	103.65993      	95.70873       	121.18294      	101.26712      	88.95374       	114.677444     	99.44762       	89.40456       	113.422905     	94.22926       	88.93041       	113.73784      	88.29129       	86.01339       	117.66061      	89.93661       	82.20787       	115.19845      	95.050575      	84.43818       	109.65324      	89.02782       	88.34514       	110.00546      	85.66511       	86.21171       	110.31711      	86.88261       	86.91645       	107.23968      	91.54712       	87.287         	103.61048      	91.17146       	91.29786       	100.43881      	89.600044      	93.039986      	97.61126       	90.42528       	94.28834       	96.06776       	90.55511       	97.0034        	93.273834      	90.53223       	99.93112       	93.11525       	88.13524       	101.10807      	92.167465      	87.03313       	98.18913       	91.982254      	88.889404      	101.29744      	87.85579       	88.42171       	107.181046     	
66.86673       	76.0573        	86.00447       	88.65685       	75.101845      	68.79924       	90.543304      	85.801834      	81.0727        	112.75202      	124.39074      	107.56253      	128.5486       	119.20853      	98.54103       	122.94226      	120.01927      	91.75262       	114.54         	118.11357      	90.79691       	114.76469      	116.45443      	87.48217       	113.15207      	116.345345     	86.156296      	108.1682       	117.952255     	84.97001       	104.88642      	117.31017      	86.94511       	103.00635      	115.96783      	85.803314      	100.67553      	113.80342      	87.7587        	99.89831       	113.94561      	83.58354       	97.92798       	111.87253      	87.499565      	95.17162       	109.023544     	88.06368       	95.97494       	108.09466      	88.8674        	99.09216       	105.98502      	87.49602       	99.10265       	100.80687      	86.70969       	101.08056      	101.16256      	85.47623       	99.42653       	103.29097      	87.07673       	96.45995       	99.200424      	88.883865      	97.17595       	93.83768       	88.56136       	99.805214      	91.91609       	90.24354       	100.84108      	92.79419       	91.30663       	98.698524      	91.46541       	94.84989       	98.377686      	86.528305      	98.30359       	99.55582       	85.04235       	96.14559       	101.328545     	84.004         	96.54416       	100.60185      	85.75042       	97.36918       	100.7625       	84.70399       	97.38049       	98.91332       	83.020546      	99.69169       	100.1599       	81.27003       	101.10761      	100.99429      	
70.14897       	84.28677       	88.938736      	85.10706       	67.720345      	71.166084      	95.56064       	86.99647       	78.98361       	112.29111      	123.852715     	111.568794     	131.18593      	126.50244      	104.940765     	118.94023      	117.472855     	102.01913      	117.13858      	112.711266     	97.393265      	117.14844      	110.99031      	91.01271       	115.4205       	112.32923      	86.35228       	109.497894     	116.7775       	88.03151       	106.57851      	112.085        	88.01944       	107.79637      	105.24461      	86.068794      	111.82788      	109.461334     	79.80209       	105.90823      	111.02568      	80.844604      	104.46001      	107.892944     	84.6491        	102.34193      	102.40833      	84.6152        	105.29187      	99.18908       	83.53898       	106.62989      	101.860146     	82.25764       	103.24771      	100.26218      	85.49377       	102.87232      	98.70365       	87.74089       	102.5841       	93.132866      	88.68861       	102.76823      	90.70661       	89.864784      	101.76814      	92.194626      	89.38779       	96.086044      	92.93226       	93.40239       	93.542366      	94.11485       	97.093506      	90.27324       	94.181244      	96.193085      	89.88239       	97.11247       	93.90259       	89.50252       	98.94444       	93.681526      	86.86989       	102.58558      	93.90214       	85.74482       	101.18282      	92.80579       	87.60771       	101.42213      	88.47562       	92.830025      	99.87749       	87.43449       	91.70025       	100.434364     	87.3253        	94.229095      	
81.53294       	83.30966       	88.263626      	89.15482       	84.090706      	83.35776       	95.39303       	95.4289        	95.63249       	103.452515     	102.1984       	120.7732       	126.72911      	109.681145     	116.06222      	117.733154     	105.99074      	112.70813      	112.61604      	99.619225      	113.140625     	110.244514     	94.47781       	114.19499      	107.891304     	95.407135      	111.442245     	104.532555     	95.27977       	110.741806     	99.8694        	94.084404      	109.28643      	99.371574      	97.09505       	102.24771      	98.66114       	98.982574      	99.503494      	96.340225      	100.93074      	95.74318       	97.94084       	100.74849      	93.95744       	100.39781      	99.60259       	93.10958       	101.70218      	97.31845       	92.99489       	101.44552      	93.59207       	94.930626      	97.29911       	90.90731       	96.59058       	99.273735      	88.46663       	99.208694      	99.80327       	85.64164       	99.076454      	96.23272       	90.08348       	98.48003       	91.62557       	94.79101       	96.84559       	88.86879       	95.40529       	98.25426       	86.453804      	97.97728       	98.172844      	86.90373       	95.7605        	100.020874     	84.860405      	96.73658       	99.78441       	82.94715       	98.69638       	97.34528       	83.665565      	101.85962      	95.56188       	80.805916      	101.238655     	99.48162       	79.03564       	99.25411       	100.19185      	81.69221       	98.46029       	95.98962       	86.4101        	100.97554      	88.97633       	87.740814      	
96.702965      	90.38719       	84.53401       	89.95154       	105.2626       	108.12409      	94.65846       	108.925934     	119.95098      	102.26793      	111.99472      	116.74515      	94.84129       	105.11177      	112.459724     	92.473785      	102.20635      	108.9148       	91.05216       	102.65632      	107.34912      	90.36475       	101.910515     	107.14605      	89.10851       	102.03437      	104.017105     	89.017944      	103.839836     	101.66488      	87.5669        	103.19982      	101.061325     	85.589485      	102.631226     	102.446526     	86.70309       	99.21628       	97.32532       	90.09921       	101.487915     	90.67406       	94.00131       	100.40539      	91.590324      	94.040375      	95.94483       	95.098526      	93.00652       	92.92041       	98.923004      	91.11534       	92.21892       	98.45834       	88.0913        	90.59876       	97.35182       	86.77785       	95.62005       	97.60583       	86.29264       	100.43201      	93.974846      	86.84265       	99.58143       	95.78334       	89.86408       	93.10133       	91.71631       	92.71925       	93.59469       	88.29948       	95.04904       	95.31359       	87.43225       	97.221855      	94.24036       	87.34022       	100.495285     	93.20256       	86.21092       	98.781624      	97.73121       	84.318474      	96.778435      	96.90871       	87.31738       	95.07209       	94.65771       	88.38452       	96.39896       	89.842155      	89.63306       	96.562515      	88.16493       	87.92408       	99.02377       	90.71862       	86.519806      	92.721054      	
120.58088      	108.90297      	98.82312       	93.742226      	108.81693      	114.50023      	91.40486       	97.01401       	108.719154     	85.600555      	100.91204      	108.411125     	83.61114       	98.48947       	108.00558      	85.10436       	93.65669       	106.11661      	88.79872       	91.23556       	99.3659        	92.67259       	93.64741       	95.18822       	93.36781       	94.96351       	90.62823       	94.0997        	97.380295      	89.15404       	95.948524      	95.72209       	87.356895      	96.78167       	98.210205      	83.645744      	98.09875       	99.705215      	81.53939       	94.37934       	103.88396      	82.36872       	88.640434      	105.396126     	88.47586       	86.907135      	104.76979      	90.66532       	88.19218       	107.17138      	88.78365       	83.92711       	109.99474      	91.162994      	78.216576      	111.31226      	94.49537       	77.010086      	108.43592      	100.39251      	76.65306       	106.466034     	99.17131       	78.43792       	104.56989      	102.613556     	75.40205       	103.10768      	99.62038       	72.5222        	102.79581      	100.52339      	77.12468       	97.407036      	102.62442      	82.252365      	97.44732       	99.23592       	82.92819       	99.02747       	96.44048       	82.91988       	98.444176      	97.85129       	85.160736      	97.86037       	95.87542       	87.18443       	97.24426       	92.66163       	89.10913       	95.214874      	92.78917       	91.71939       	93.12477       	89.72456       	94.78807       	94.898674      	85.801315      	92.69538       	
99.9654        	89.26816       	84.02613       	89.19515       	103.11823      	96.19909       	77.65679       	98.724236      	98.78199       	76.436874      	99.049126      	103.62334      	74.838196      	96.36701       	102.75887      	73.08829       	92.74492       	110.11281      	76.24324       	82.63317       	112.40492      	81.742386      	76.57774       	108.52454      	89.60873       	77.048996      	105.208084     	85.81461       	79.07223       	111.64281      	83.75915       	71.20954       	114.473015     	89.842514      	67.56003       	110.83329      	97.76366       	67.66798       	103.79696      	101.65736      	74.354744      	102.363266     	98.824425      	74.02729       	100.26058      	99.01846       	73.86082       	102.000786     	105.04123      	72.364784      	98.874954      	111.705185     	75.197235      	92.42851       	113.275665     	76.58592       	93.5092        	112.46754      	78.311905      	88.08055       	107.11811      	67.97281       	82.78818       	119.7769       	86.27994       	85.56921       	124.33716      	88.71247       	80.63451       	117.63747      	86.355156      	75.73126       	100.00765      	80.593185      	89.970055      	117.38359      	90.64235       	84.65255       	115.46445      	88.17425       	83.39733       	113.44473      	88.9611        	80.79283       	110.00307      	89.2755        	79.25358       	108.2131       	91.29753       	79.619225      	107.6764       	92.01712       	81.86435       	109.676056     	88.08398       	79.4789        	108.771355     	92.324615      	80.669716      	100.00536      	
96.903145      	88.18995       	87.43724       	94.89607       	101.69789      	89.870415      	86.3346        	103.23723      	92.14423       	80.50387       	102.887955     	96.87984       	80.935265      	99.652916      	97.75438       	80.95161       	101.07978      	97.12846       	78.333206      	100.962105     	99.125656      	78.8221        	100.44074      	102.83395      	77.542015      	97.3091        	104.90571      	77.81102       	96.90527       	103.45918      	78.571         	98.38011       	103.52184      	76.97635       	95.85127       	103.19001      	79.52394       	96.478424      	102.54411      	80.84321       	99.39538       	102.484825     	82.23772       	95.48942       	99.1392        	82.92311       	98.30946       	99.49993       	86.04289       	99.902725      	98.52775       	85.73519       	99.77542       	95.79777       	90.18055       	97.179924      	93.726776      	93.02571       	85.29822       	78.30771       	76.49938       	76.23082       	82.497314      	93.50904       	89.10582       	89.383514      	87.75155       	80.768196      	88.56609       	89.91586       	80.40807       	86.73597       	77.94811       	63.73394       	80.38642       	80.4945        	79.62504       	112.2093       	106.03516      	102.42707      	110.2439       	99.54553       	100.68066      	108.926216     	96.23694       	95.89501       	110.262054     	91.146255      	97.52375       	111.60299      	89.35821       	94.70737       	110.732475     	90.40518       	93.238335      	109.798935     	90.31696       	92.68453       	113.216965     	87.002426      	
82.24645       	91.83613       	100.15092      	101.50549      	91.712616      	89.94929       	97.61632       	94.87862       	90.646324      	92.3147        	96.18359       	95.33345       	90.1949        	97.5557        	95.816         	87.828316      	99.94109       	96.30495       	85.108444      	101.36279      	96.08257       	84.89891       	103.17762      	94.19349       	85.15858       	104.14932      	95.02364       	83.25244       	106.67982      	94.822395      	81.34185       	106.254265     	93.3691        	79.56267       	108.292816     	96.17193       	80.67346       	105.83804      	100.65915      	80.3793        	104.22055      	96.303375      	79.85552       	103.93696      	95.385         	82.31242       	103.88631      	96.28211       	81.69523       	104.36079      	95.780014      	81.71037       	104.17111      	93.08446       	81.08015       	96.919525      	85.34264       	76.540054      	89.41459       	79.84822       	79.65893       	87.90605       	83.776985      	81.76383       	86.10503       	75.35319       	68.66788       	62.504288      	64.709274      	63.821022      	59.57203       	66.75844       	64.178154      	57.69533       	72.69613       	75.662766      	67.77285       	104.89339      	118.40784      	98.871056      	115.13154      	112.51376      	93.42884       	111.40126      	110.70793      	90.95295       	107.82095      	111.73296      	89.68495       	105.91724      	110.11112      	84.84713       	105.41728      	109.89784      	83.829575      	105.270836     	106.67723      	85.24791       	102.003624     	106.58468      	
87.843216      	101.930695     	105.32443      	96.56512       	86.13437       	93.86909       	102.62275      	89.26787       	92.13579       	100.67315      	88.519806      	94.05484       	100.92819      	87.49259       	98.045815      	100.325645     	84.99178       	97.713615      	101.338104     	82.09631       	98.40284       	104.21502      	83.41755       	97.902664      	102.76059      	84.33864       	97.86356       	102.01671      	83.62347       	98.769295      	101.43251      	82.68118       	99.66307       	102.88265      	82.36302       	101.26525      	103.48389      	82.59858       	98.18913       	102.323524     	84.81751       	97.15016       	98.80411       	83.8685        	97.35718       	96.7187        	83.66228       	98.19571       	98.47905       	76.3534        	91.56307       	88.96138       	72.80913       	89.897835      	93.50788       	77.16496       	88.3295        	81.17229       	63.556988      	75.146126      	71.56646       	54.5539        	71.96729       	75.5655        	54.873116      	74.775055      	80.598526      	58.996895      	74.86651       	87.54391       	62.97691       	75.579155      	86.54727       	63.655434      	78.145424      	91.11571       	72.2927        	94.42574       	122.121796     	114.10141      	123.10566      	126.98101      	106.89115      	116.362305     	120.97123      	103.12739      	111.32052      	117.018936     	99.42777       	111.053345     	112.31941      	96.60689       	109.59531      	112.27786      	94.66623       	109.71789      	111.71364      	93.11845       	108.210434     	110.2361       	
115.837        	109.34034      	88.26492       	72.81121       	91.333374      	114.56227      	86.74264       	82.913284      	110.784874     	87.43857       	81.92192       	111.62676      	89.45173       	79.18244       	113.81359      	94.963104      	72.75206       	110.36963      	100.924286     	75.3921        	104.8005       	103.19074      	79.02171       	101.98925      	101.91188      	78.17921       	103.15889      	102.25111      	75.67708       	105.61677      	106.49726      	74.53523       	98.18248       	105.90339      	78.819664      	99.998795      	102.19515      	81.83266       	99.3295        	100.52238      	84.704025      	101.18375      	97.86202       	78.316025      	85.33585       	88.62868       	81.91759       	85.99716       	88.265884      	84.00801       	76.53764       	70.59443       	70.52278       	65.99468       	60.017803      	70.23746       	72.845505      	63.060234      	71.22847       	78.27809       	66.48921       	73.26626       	80.805016      	69.598206      	79.029205      	83.728516      	72.31796       	79.711464      	90.06407       	75.05791       	78.42052       	94.52714       	77.94306       	73.6242        	93.95433       	81.91794       	75.886505      	103.02848      	101.96713      	108.61745      	138.01732      	124.58475      	107.84289      	131.09702      	118.69587      	101.29552      	125.44301      	115.1826       	97.14279       	121.268425     	118.21015      	93.94678       	118.264114     	115.75762      	92.861885      	113.38977      	118.60341      	89.90496       	106.015175     	120.79942      	
84.66492       	76.38117       	90.68177       	113.93144      	108.86274      	75.94714       	93.34516       	117.07694      	78.57573       	82.173584      	116.35185      	85.15701       	83.594315      	116.23539      	88.74955       	80.20382       	116.187775     	90.81715       	79.1178        	114.76816      	93.65488       	73.63363       	119.18383      	97.53997       	71.420654      	110.51425      	103.76335      	70.712906      	106.1891       	103.07528      	72.62281       	105.279785     	104.200325     	72.77233       	103.5464       	109.87114      	70.92911       	96.62029       	116.977585     	75.78571       	87.39901       	110.2794       	59.10486       	57.389668      	85.195816      	49.60693       	54.373417      	83.034225      	50.903996      	56.85414       	88.98471       	56.184452      	60.2634        	90.56627       	62.485348      	64.47188       	91.75363       	70.20508       	66.59673       	93.63984       	74.95662       	68.443245      	94.35749       	78.59471       	71.635056      	99.51453       	79.59154       	67.48275       	101.11115      	80.9611        	68.39626       	98.80551       	86.63957       	65.972046      	97.653595      	88.69007       	66.79504       	102.25374      	102.64825      	89.38379       	141.63821      	133.82613      	100.18686      	127.93396      	134.7508       	97.8414        	115.397125     	130.43552      	95.79399       	108.86776      	127.20167      	94.886635      	104.8863       	127.51488      	97.90861       	96.02124       	126.601524     	99.95545       	88.699814      	124.585884     	
79.33184       	78.526634      	93.69149       	111.67025      	104.69396      	76.42777       	98.426796      	113.594986     	77.681206      	88.62833       	115.44975      	83.355576      	85.45059       	115.330025     	88.00719       	86.24986       	113.408615     	86.48542       	85.48368       	113.979034     	85.59412       	84.005264      	114.399536     	89.67009       	77.39733       	112.3031       	93.750595      	76.54097       	109.986786     	96.40642       	77.283775      	106.5087       	99.63923       	75.71434       	103.46779      	101.34403      	75.324554      	103.34164      	102.29284      	73.45655       	85.70897       	60.522175      	6.5786004      	31.206911      	68.068474      	54.893456      	69.73943       	91.03996       	58.081863      	70.52262       	94.3039        	61.298218      	74.31346       	97.82319       	64.87171       	69.31473       	103.174614     	69.1446        	68.88038       	104.320015     	72.80058       	70.873184      	105.110405     	77.431915      	75.30758       	103.647285     	79.82758       	76.77705       	103.75246      	80.57638       	78.69645       	100.07128      	82.29762       	75.20895       	98.4019        	78.2794        	75.2471        	99.42203       	85.983154      	88.671135      	129.42522      	128.33302      	115.3846       	133.13113      	116.37635      	110.03402      	126.83739      	111.71741      	105.51048      	124.0764       	106.690216     	103.72661      	119.500534     	105.63432      	100.89516      	117.30407      	102.375206     	100.45236      	116.4232       	100.81368      	
88.519966      	106.17897      	111.51766      	99.61271       	82.778885      	92.95361       	109.72853      	93.86455       	91.333115      	106.98755      	94.56483       	88.668144      	104.788536     	97.310715      	86.12086       	101.964424     	101.178154     	87.24478       	96.350426      	104.73095      	91.01718       	89.813705      	101.67639      	96.75053       	91.93552       	96.07678       	97.537         	94.09526       	92.03707       	95.13033       	95.54736       	92.88597       	95.03962       	95.43616       	92.04154       	99.36818       	96.909355      	85.71125       	84.09449       	71.530785      	38.860115      	31.845253      	34.990707      	21.446012      	24.9169        	46.432003      	47.849792      	57.18103       	91.11133       	90.16373       	82.91011       	89.05818       	90.350555      	83.25064       	86.080795      	93.11557       	83.33265       	85.79448       	98.5173        	87.479774      	81.13411       	99.04184       	92.21163       	78.68621       	96.82516       	97.87524       	81.45165       	92.81511       	96.627426      	83.31468       	90.289314      	97.614105      	81.74198       	84.65417       	98.82787       	85.295845      	79.826485      	98.71613       	91.21675       	88.41044       	111.44601      	126.62553      	122.981705     	126.842514     	129.12155      	112.71578      	118.44919      	126.21551      	108.96978      	108.431015     	120.56217      	113.60113      	105.744194     	114.23927      	113.2336       	104.1969       	111.46788      	112.57401      	102.79305      	106.13595      	
84.36823       	97.91591       	106.09798      	103.151566     	91.26615       	91.66789       	105.554756     	93.701         	84.98349       	105.19276      	90.444496      	76.802444      	97.821         	86.84859       	90.41957       	110.33355      	101.58646      	89.96648       	105.73352      	97.34459       	87.52242       	103.91321      	94.14809       	87.332634      	103.30099      	96.35353       	83.643936      	103.12712      	98.53874       	81.759285      	99.47907       	102.758545     	80.35947       	97.9113        	103.91145      	81.622185      	96.54052       	57.44483       	22.184013      	33.15657       	24.191933      	-3.715944      	15.1125965     	21.446236      	2.597618       	26.191439      	43.86835       	24.978981      	57.98126       	109.00601      	91.753136      	99.504814      	114.91731      	88.188194      	94.60402       	113.91785      	88.25578       	90.02475       	115.188736     	89.82911       	85.59452       	111.66972      	93.50261       	80.10259       	110.52691      	98.55492       	76.33472       	99.23613       	105.05083      	85.787285      	95.063354      	101.99561      	86.13932       	94.09728       	98.09335       	82.66084       	90.13038       	99.68444       	84.136154      	91.28378       	115.218925     	120.67557      	123.29717      	133.91766      	128.601        	115.07524      	119.544205     	125.01909      	114.0656       	112.86279      	118.70021      	112.2873       	109.781586     	115.56323      	109.26091      	105.44628      	116.223335     	108.89122      	100.02037      	114.96101      	
103.079025     	108.541374     	97.01569       	79.41822       	81.04692       	99.87452       	86.2701        	79.067856      	98.82685       	85.25982       	79.93582       	98.18598       	75.22961       	59.06032       	88.44132       	79.88665       	67.615845      	111.19514      	113.24305      	94.585655      	115.561165     	105.87841      	91.5065        	110.53357      	103.696205     	91.710335      	113.4299       	99.51672       	91.39001       	108.586075     	99.948814      	91.11002       	106.01916      	99.0197        	93.82486       	104.02519      	94.978325      	57.735966      	38.86655       	11.8157        	9.901027       	22.529755      	9.152169       	13.076697      	29.085888      	25.672367      	32.911747      	51.503475      	47.36521       	56.165386      	100.56575      	108.260895     	99.32178       	114.30713      	103.88025      	92.03154       	113.12023      	103.70951      	87.28997       	112.38121      	108.05339      	84.4818        	108.36796      	105.33205      	84.878784      	103.14937      	107.49723      	84.89071       	101.41855      	107.2878       	82.957954      	100.401405     	109.609146     	79.77177       	95.07818       	107.30382      	77.88139       	89.2737        	107.237434     	80.350815      	91.34008       	124.354454     	121.104485     	121.79081      	143.33597      	118.48101      	110.42949      	135.26093      	118.9473       	103.323845     	131.9015       	114.93323      	96.68497       	125.93189      	114.05277      	93.576485      	123.27646      	112.68773      	88.306564      	121.31019      	
109.676796     	95.61921       	81.16727       	73.0338        	84.31253       	89.97456       	59.55668       	66.54776       	89.35796       	61.953693      	55.07467       	85.30363       	73.421135      	60.364555      	83.36634       	80.67135       	72.248116      	103.35336      	124.14898      	108.42688      	123.571495     	123.69123      	102.4294       	110.937706     	122.02802      	104.65613      	102.12894      	118.5237       	110.61994      	97.28049       	111.93912      	111.10878      	98.94327       	105.52922      	110.54293      	99.17684       	69.0633        	58.905247      	29.295933      	31.093845      	37.74269       	26.814362      	27.046185      	41.436283      	25.896843      	36.263775      	68.37039       	52.81295       	40.01562       	73.70484       	94.76153       	99.56173       	118.90152      	109.277664     	93.68639       	115.13248      	104.66474      	91.09329       	113.34483      	107.70874      	85.182236      	105.60948      	112.99859      	82.75822       	101.135605     	114.62606      	85.29731       	94.22914       	114.95137      	84.30112       	90.290726      	114.440506     	84.13298       	87.006035      	114.8555       	87.56567       	80.53163       	109.39983      	89.63238       	79.14518       	114.58177      	103.37223      	95.233505      	150.03769      	137.63568      	107.664986     	137.74031      	128.98824      	99.043365      	133.7512       	127.970665     	99.033356      	121.85106      	127.40547      	97.05177       	116.65967      	125.94325      	90.046394      	116.6672       	122.65175      	
77.56483       	99.86531       	96.72686       	74.228355      	61.979897      	89.948364      	99.47904       	66.88552       	86.343         	101.64108      	68.74029       	83.712906      	104.644        	70.97102       	79.24035       	107.52534      	80.18971       	83.879395      	126.50031      	121.5548       	112.7413       	144.50658      	119.8464       	103.73737      	139.96295      	121.72957      	95.151535      	131.87216      	121.997955     	89.40803       	126.62154      	119.72559      	88.71512       	122.2278       	117.67289      	80.23134       	83.74296       	68.35133       	25.316326      	41.392918      	51.86283       	20.205473      	46.060238      	63.210613      	28.53635       	58.960518      	83.97929       	52.039207      	74.99659       	99.1539        	90.59107       	105.94787      	120.08348      	88.50839       	99.41485       	114.79725      	90.80889       	97.83451       	106.63738      	91.23247       	100.824265     	102.776436     	88.08271       	100.984245     	102.4947       	88.33878       	98.521126      	103.53231      	88.13244       	98.10673       	100.372894     	88.817154      	98.36363       	95.56755       	88.6586        	99.23127       	88.216064      	84.10113       	101.39538      	91.14774       	84.988525      	104.28148      	110.964874     	124.93612      	134.33084      	121.63158      	122.61434      	130.3057       	111.46322      	116.43132      	132.33005      	108.26215      	108.008        	126.44587      	110.05256      	104.17955      	121.92027      	106.215256     	103.57541      	119.02682      	
82.87125       	100.34007      	105.277306     	91.94416       	77.195854      	91.93591       	106.66321      	81.17684       	87.70731       	108.57084      	83.19679       	81.47594       	108.78437      	88.61926       	80.26055       	104.601715     	91.77267       	87.00136       	120.906494     	117.58305      	121.363        	148.4396       	132.40703      	107.7779       	137.82814      	129.95778      	100.92675      	130.69211      	125.67559      	100.199394     	124.699005     	121.38448      	98.64798       	122.594345     	118.19671      	96.15161       	122.22966      	115.35845      	77.0112        	91.61129       	88.04587       	50.654297      	69.08571       	73.5452        	52.55973       	71.20427       	83.171745      	68.94959       	96.75777       	100.03109      	72.92913       	94.29005       	101.6587       	70.8262        	93.76107       	103.812325     	76.496635      	90.639534      	102.72257      	79.30689       	89.939         	99.75108       	79.04555       	92.82894       	100.09986      	76.51947       	94.202965      	102.6145       	76.63714       	91.339005      	107.55697      	78.74018       	88.606735      	103.17225      	81.36987       	88.899124      	99.448654      	77.472786      	90.23962       	96.38907       	77.77631       	94.45369       	110.38626      	101.5247       	128.53432      	137.71829      	114.055405     	117.89722      	127.96598      	109.60822      	118.111015     	122.999756     	104.64645      	114.09994      	122.775795     	99.3753        	110.62011      	123.11728      	97.99039       	106.50199      	
78.808945      	86.29553       	95.196045      	98.34818       	88.91716       	82.02214       	94.22464       	94.64592       	84.68107       	93.1299        	88.89971       	84.120224      	96.30089       	92.224884      	75.8388        	91.18094       	100.40009      	81.59689       	95.94205       	117.36499      	118.702545     	123.29101      	138.23935      	114.939735     	112.65597      	132.3098       	112.561775     	109.16024      	126.39282      	108.05899      	104.33247      	124.91919      	109.94854      	98.0862        	123.0992       	112.482704     	96.81363       	118.70423      	115.52994      	93.33479       	117.17082      	116.94288      	82.53395       	91.836334      	101.27495      	66.69626       	82.852005      	90.057976      	55.50055       	72.71289       	91.48527       	61.42194       	71.411446      	98.571075      	70.772644      	71.15367       	98.8287        	75.60125       	71.07238       	100.59059      	77.467896      	69.47209       	104.00996      	79.32157       	70.11848       	101.81483      	85.87264       	68.06989       	100.513824     	88.63016       	66.69713       	103.65086      	91.88591       	66.47213       	99.458694      	93.44303       	65.83394       	96.195564      	93.379364      	64.47478       	93.67951       	97.19835       	70.18779       	105.44547      	129.43675      	108.53989      	126.51844      	135.86127      	100.35141      	116.95716      	129.21669      	95.89144       	116.748535     	128.43025      	94.00874       	114.77835      	123.59776      	93.77072       	109.55606      	120.42684      	
95.62126       	92.48866       	86.10631       	82.43937       	90.462006      	97.68347       	83.155304      	88.7734        	100.304596     	81.80738       	84.50296       	102.825516     	84.51147       	81.46041       	102.14609      	84.28398       	79.21802       	104.432625     	90.252594      	92.99608       	134.11644      	128.44247      	118.68224      	138.41081      	121.183395     	111.90488      	130.93694      	115.610176     	109.33377      	126.55069      	115.179695     	108.05697      	117.04142      	110.413574     	110.37695      	114.00111      	106.943245     	109.09131      	113.887695     	104.18797      	108.17355      	115.56168      	102.69743      	94.808365      	94.11728       	83.18132       	84.73698       	81.07136       	64.60648       	79.63868       	85.837456      	64.534645      	82.91224       	89.5977        	72.01551       	83.73338       	88.380424      	76.84194       	86.375435      	85.8116        	80.14963       	91.74899       	88.32203       	80.959366      	91.461235      	89.399704      	81.63634       	93.0566        	89.72718       	81.36903       	94.82809       	90.580826      	82.83133       	93.68743       	88.66715       	80.569016      	95.462234      	86.74846       	74.889015      	96.1126        	88.49312       	73.44173       	100.06055      	100.2232       	90.48599       	131.9424       	131.81741      	111.96369      	128.56902      	122.7318       	106.44641      	124.441284     	114.63421      	104.83825      	117.228745     	111.40569      	105.12662      	110.416504     	110.65872      	107.948235     	
86.8846        	74.65752       	83.320625      	100.96219      	102.03575      	81.60983       	85.28068       	105.15093      	80.7446        	86.82042       	107.065094     	84.94014       	84.01302       	103.452896     	85.62192       	79.98592       	103.241776     	85.93339       	81.947464      	111.37254      	104.32915      	119.88738      	146.44708      	121.3737       	113.73011      	136.23813      	118.09895      	108.818756     	129.12894      	115.9026       	107.80603      	123.21493      	110.26852      	107.814835     	118.95584      	107.9995       	107.14795      	118.746216     	100.75888      	107.139206     	120.684456     	99.73596       	102.942795     	115.758255     	90.55245       	85.07476       	91.739746      	71.48802       	71.87334       	82.93218       	68.94962       	73.92976       	87.210884      	73.67855       	76.58359       	92.350464      	74.19768       	83.82999       	94.29672       	74.95716       	80.98467       	98.15885       	76.76163       	80.03592       	99.78897       	81.10814       	82.356964      	98.05074       	81.73327       	81.741585      	101.20951      	80.40888       	83.935425      	103.209        	76.2724        	78.811356      	103.60174      	81.03573       	77.19765       	101.686646     	80.12697       	77.48748       	99.69803       	89.27994       	92.65709       	127.066246     	122.65247      	120.121735     	136.93527      	110.96691      	111.87092      	129.04591      	109.90279      	107.863594     	123.01575      	108.104645     	106.61756      	118.15633      	102.421005     	107.25692      	
97.909966      	76.26922       	74.31108       	85.757065      	103.05958      	92.208855      	72.87221       	98.46965       	96.06221       	77.05089       	90.323906      	93.38172       	80.01039       	92.10181       	88.60266       	74.65423       	88.25318       	83.26294       	70.550446      	93.26586       	97.08666       	95.599106      	130.09006      	125.43641      	111.7379       	118.87161      	113.288284     	105.52463      	119.44568      	112.73238      	100.5547       	113.95446      	114.05563      	99.21646       	108.511505     	114.02139      	95.525055      	108.13293      	112.69719      	94.388664      	104.70147      	110.90458      	96.84123       	104.41617      	110.31083      	79.79541       	77.74478       	89.86072       	67.79045       	62.08406       	83.80041       	68.7428        	63.561626      	89.98766       	77.06017       	63.052284      	92.88314       	84.73526       	64.694534      	91.10278       	91.362755      	65.96467       	89.91288       	95.23079       	69.61634       	87.66877       	96.836555      	69.59729       	90.07356       	100.38195      	67.626274      	87.82703       	103.34473      	70.15135       	85.83728       	103.28569      	75.292206      	78.943794      	101.505684     	78.14148       	75.53484       	97.94438       	78.581474      	76.41918       	107.49463      	102.2007       	106.69247      	143.56284      	128.66737      	99.66208       	131.26244      	129.35193      	95.6908        	121.60587      	129.05008      	95.56928       	115.43694      	122.431114     	91.402756      	113.34082      	
